index,time,conflicts
0,2.29,40313
1,1.21,10765
2,1.66,24945
3,3.06,47659
4,4.06,90774
5,2.45,51480
6,3.12,64455
7,5.34,116339
8,3.74,75225
9,7.38,143657
10,0.71,7580
11,0.5,4500
12,0.05,311
13,0.25,2083
14,0.47,4523
15,0.05,471
16,0.05,375
17,0.61,6241
18,0.71,6632
19,0.47,4138
20,0.74,7056
21,0.07,550
22,0.04,235
23,0.54,5602
24,0.61,5780
25,0.51,4495
26,0.84,7930
27,0.03,230
28,0.03,247
29,0.03,209
30,1.51,23285
31,1.36,19740
32,0.61,6793
33,0.48,4716
34,0.68,7000
35,0.45,3773
36,0.68,7747
37,1.22,20174
38,0.76,8786
39,0.72,7603
40,0.75,8587
41,0.74,7682
42,0.77,7978
43,0.92,8964
44,1.29,20824
45,0.49,5943
46,0.76,8627
47,0.51,5577
48,1.16,20254
49,0.51,5799
50,1.32,23856
51,8.93,174541
52,1.46,23396
53,1.0,12525
54,0.47,4819
55,1.04,13691
56,1.17,17034
57,0.7,7499
58,0.51,6164
59,0.43,4481
60,1.15,17201
61,5.81,108259
62,0.41,4654
63,1.11,16636
64,1.67,30252
65,2.24,44120
66,0.91,8892
67,2.41,43115
68,0.81,8314
69,2.17,37534
70,1.72,27219
71,1.27,18506
72,2.0,33922
73,0.5,4436
74,1.33,18984
75,1.66,26655
76,1.12,15353
77,1.17,13972
78,0.61,6310
79,1.17,13212
80,0.86,9094
81,1.56,23220
82,1.28,16569
83,1.65,25369
84,0.99,12301
85,1.62,23974
86,1.41,18222
87,1.76,24698
88,2.17,41820
89,2.12,42921
90,0.03,296
91,1.97,40563
92,2.68,63272
93,2.38,50606
94,3.15,67873
95,0.03,240
96,1.63,27038
97,1.35,23097
98,1.2,17956
99,1.15,18282
100,1.45,21968
101,0.84,9367
102,1.35,19280
103,1.4,21319
104,1.35,20505
105,0.8,8987
106,1.33,19784
107,1.44,23086
108,1.16,15508
109,0.58,6326
110,1.22,16192
111,5.11,100674
112,1.45,23667
113,1.54,24979
114,1.05,13938
115,0.74,8877
116,1.37,22188
117,2.83,57797
118,1.67,30493
119,0.58,6352
120,1.0,12537
121,0.94,11007
122,0.89,11928
123,2.0,40149
124,0.97,12307
125,1.92,38312
126,2.35,48122
127,11.29,205274
128,1.37,17673
129,1.41,22105
130,2.29,43278
131,1.05,13666
132,1.49,23323
133,0.27,2781
134,3.09,60205
135,1.46,20660
136,0.02,85
137,1.65,22823
138,1.64,20532
139,1.01,13345
140,1.43,22931
141,0.26,2743
142,2.26,38291
143,1.42,21539
144,2.13,37519
145,0.4,4269
146,0.01,31
147,1.76,22652
148,0.01,32
149,1.9,34178
150,3.01,53886
151,6.14,139584
152,12.93,252713
153,16.16,310274
154,4.78,101044
155,2.29,45919
156,3.66,81946
157,1.96,41998
158,1.12,15246
159,1.02,13841
160,2.09,40740
161,1.52,29255
162,1.67,31292
163,4.28,91587
164,2.29,50213
165,1.15,15942
166,2.27,47063
167,2.04,37619
168,2.1,41999
169,1.83,36785
170,2.08,41617
171,0.72,7556
172,2.22,44191
173,1.94,37818
174,1.07,9847
175,2.89,53310
176,2.64,48374
177,1.33,20309
178,2.83,56834
179,3.22,64913
180,5.97,120182
181,1.46,22563
182,3.58,71334
183,4.26,81721
184,3.59,59451
185,12.21,207916
186,3.99,90962
187,4.24,100933
188,3.9,81520
189,3.43,75281
190,2.02,41909
191,7.14,149479
192,1.81,34099
193,2.64,48813
194,3.52,75064
195,6.79,141033
196,4.2,91630
197,3.4,73969
198,6.42,127376
199,2.86,63796
200,7.77,168705
201,7.02,144201
202,6.35,126119
203,19.08,340804
204,0.01,49
205,1.19,12660
206,15.67,293364
207,0.02,49
208,0.01,41
209,1.47,22215
210,17.98,336077
211,0.03,201
212,0.01,28
213,0.03,238
214,0.51,4439
215,0.4,4159
216,1.18,16048
217,1.31,19056
218,0.76,8217
219,1.2,15158
220,0.94,9515
221,0.66,6657
222,1.23,13541
223,1.55,26437
224,1.3,20040
225,0.63,7310
226,0.72,7536
227,1.24,16874
228,1.31,18532
229,1.46,24485
230,1.1,14345
231,0.27,2507
232,0.47,4922
233,0.7,7452
234,0.52,5151
235,1.54,26458
236,1.87,36784
237,1.51,26763
238,1.17,18492
239,8.59,167371
240,1.34,21520
241,1.17,17403
242,5.93,112732
243,1.65,33133
244,1.55,26007
245,1.59,28365
246,1.18,16573
247,1.3,21013
248,1.68,28820
249,1.2,17829
250,1.73,30704
251,1.41,23315
252,1.52,26635
253,1.59,27440
254,1.16,15755
255,1.58,25731
256,1.83,33177
257,1.54,25807
258,2.02,34215
259,1.15,13726
260,1.42,20940
261,1.84,31304
262,1.32,16997
263,1.88,30658
264,1.76,28679
265,1.49,21429
266,1.74,26915
267,1.35,22148
268,1.74,33675
269,1.37,24229
270,1.52,26445
271,1.41,25039
272,1.49,26818
273,1.96,37305
274,1.93,39053
275,2.3,43038
276,1.55,26844
277,1.67,29447
278,0.89,9969
279,0.02,118
280,0.02,70
281,3.75,77371
282,0.01,23
283,2.1,37849
284,1.88,34940
285,2.13,37408
286,2.25,39342
287,0.01,70
288,0.02,118
289,2.31,43005
290,1.83,32319
291,0.55,6337
292,0.01,54
293,3.07,60566
294,3.1,63767
295,1.59,27071
296,1.05,13463
297,1.73,29823
298,2.8,57160
299,15.0,277408
300,2.43,48427
301,1.55,25260
302,1.91,34978
303,1.52,23936
304,0.53,5680
305,1.84,26342
306,1.85,33065
307,1.41,23686
308,3.04,63135
309,2.05,39800
310,1.44,22319
311,1.06,13906
312,1.49,23748
313,0.69,8138
314,0.02,40
315,1.54,21065
316,1.69,24408
317,1.31,16304
318,1.82,23969
319,1.27,19632
320,2.62,49415
321,1.61,27704
322,1.0,14009
323,5.04,98086
324,0.01,22
325,0.01,38
326,0.77,8098
327,4.83,93310
328,2.68,59568
329,3.06,63881
330,0.01,20
331,2.79,59402
332,13.73,277808
333,0.01,39
334,2.93,62515
335,4.74,101084
336,0.01,29
337,3.31,62916
338,0.01,41
339,3.72,79372
340,2.41,50672
341,8.85,181518
342,5.01,114822
343,5.29,124919
344,1.69,30738
345,1.78,36424
346,1.91,38819
347,2.41,51914
348,5.65,128428
349,6.37,144239
350,2.39,46032
351,2.9,65514
352,3.07,71757
353,1.91,40704
354,2.43,49829
355,3.02,65494
356,1.24,18584
357,3.4,77874
358,0.02,89
359,3.51,76179
360,1.31,20869
361,2.1,41858
362,1.26,18884
363,0.01,61
364,1.77,33186
365,3.31,66726
366,0.01,55
367,3.74,76647
368,1.61,26362
369,1.75,31589
370,1.7,29286
371,1.33,21621
372,2.04,37619
373,0.01,19
374,1.65,23722
375,2.57,47411
376,1.62,28010
377,2.37,46171
378,5.59,126610
379,2.81,64208
380,5.95,128645
381,2.95,68945
382,0.01,87
383,0.01,28
384,2.02,42427
385,2.27,49902
386,1.58,30786
387,2.7,56443
388,1.85,36856
389,2.53,50556
390,0.02,88
391,6.9,148656
392,2.03,36392
393,2.31,44044
394,1.72,29852
395,1.39,18755
396,1.56,27913
397,1.68,31299
398,1.15,15604
399,1.74,32346
400,4.83,103650
401,2.53,51210
402,1.59,25886
403,2.65,52335
404,1.29,19875
405,1.82,36538
406,4.68,101917
407,3.45,76093
408,1.63,31272
409,3.55,76206
410,28.62,520582
411,2.48,51856
412,4.9,108146
413,2.57,54611
414,2.86,63797
415,0.02,74
416,0.02,66
417,3.4,67061
418,3.22,62867
419,2.21,42908
420,2.09,42933
421,2.81,62167
422,2.27,46453
423,13.99,265248
424,2.53,49161
425,4.57,101080
426,1.65,31068
427,0.01,23
428,2.88,56655
429,1.79,31104
430,2.86,49147
431,1.92,40199
432,6.7,144672
433,2.29,47673
434,1.35,20461
435,1.78,34007
436,6.14,140104
437,2.08,43896
438,2.1,43185
439,2.11,43569
440,2.11,41214
441,0.01,29
442,2.48,49291
443,3.12,69467
444,1.87,33564
445,1.68,27729
446,2.75,53178
447,2.0,37106
448,1.96,36816
449,2.78,58517
450,0.01,53
451,1.74,37110
452,1.49,30067
453,1.51,26124
454,1.28,19143
455,1.44,25330
456,1.52,26286
457,0.02,152
458,0.02,129
459,1.71,30969
460,1.36,19471
461,1.25,20950
462,2.65,56638
463,0.02,123
464,0.62,7191
465,1.97,35112
466,1.96,41025
467,1.54,27908
468,6.4,126239
469,2.29,46887
470,1.85,33068
471,1.88,36831
472,1.93,36568
473,2.15,42850
474,1.68,31494
475,1.76,35908
476,1.17,16970
477,1.69,31003
478,2.89,60087
479,8.43,167612
480,1.25,20109
481,1.58,25656
482,0.78,9267
483,1.35,18771
484,0.28,2779
485,1.59,24584
486,0.32,2796
487,0.98,9819
488,0.61,5484
489,0.51,4833
490,0.82,7930
491,1.29,23688
492,1.75,31781
493,1.33,18394
494,0.82,8473
495,0.47,4592
496,0.61,6441
497,1.2,20078
498,1.53,27315
499,0.92,10682
500,1.1,15986
501,3.29,64826
502,4.95,99635
503,1.67,24474
504,1.2,20927
505,1.22,18753
506,1.33,21635
507,1.62,33433
508,1.1,15363
509,1.39,21075
510,1.33,22005
511,0.02,99
512,0.02,84
513,1.56,26575
514,1.23,17609
515,3.11,66416
516,0.02,150
517,2.06,37328
518,1.27,21646
519,1.45,22031
520,0.31,3140
521,1.49,23544
522,1.14,14461
523,0.67,7269
524,0.73,7264
525,1.36,18604
526,0.62,6173
527,0.47,4001
528,0.92,8574
529,1.79,32195
530,4.06,83083
531,3.65,70158
532,1.26,20352
533,1.36,20278
534,0.78,8716
535,1.36,17887
536,1.95,41084
537,6.27,126066
538,2.26,46506
539,1.87,32819
540,1.89,38648
541,3.54,73531
542,2.63,52295
543,1.47,26121
544,1.65,31108
545,3.74,76511
546,5.56,115168
547,7.66,153039
548,14.62,269399
549,14.03,261734
550,17.68,336499
551,2.09,44771
552,1.24,19668
553,1.52,27928
554,0.01,18
555,1.64,31691
556,3.04,65436
557,1.27,22795
558,0.61,7788
559,5.3,116684
560,2.51,50525
561,4.75,102800
562,8.59,170943
563,5.73,123241
564,5.38,118933
565,5.1,111562
566,5.12,105650
567,4.64,99823
568,3.27,73895
569,3.24,75500
570,11.19,216080
571,2.21,37642
572,8.86,192537
573,9.38,194225
574,2.06,47599
575,4.82,105794
576,1.71,36068
577,2.47,59823
578,1.38,24498
579,8.79,173772
580,5.82,123738
581,5.29,118070
582,8.12,162682
583,4.46,100525
584,6.36,145558
585,0.02,112
586,2.63,56648
587,1.49,25731
588,2.21,50813
589,1.68,36983
590,2.62,57486
591,2.19,46525
592,2.51,55715
593,1.0,14991
594,8.11,174307
595,6.33,145087
596,6.26,142902
597,0.01,24
598,5.99,134858
599,2.0,43722
600,1.92,40248
601,2.21,43052
602,1.56,28757
603,2.84,59364
604,0.01,39
605,6.61,149915
606,2.86,60936
607,3.01,66860
608,2.5,54630
609,1.05,16869
610,6.47,136239
611,8.94,191550
612,1.77,36364
613,6.18,139158
614,2.56,56922
615,6.59,153778
616,1.65,32315
617,2.06,41969
618,2.6,52071
619,1.84,38888
620,2.78,57700
621,0.01,53
622,2.34,54930
623,5.4,115626
624,3.11,61975
625,3.04,65590
626,2.86,62472
627,4.5,108884
628,8.6,186084
629,4.87,108877
630,5.09,116124
631,4.61,109933
632,9.2,196837
633,3.78,89967
634,9.34,203313
635,3.49,77675
636,4.61,104810
637,4.59,104888
638,3.74,82237
639,5.36,119061
640,4.5,102077
641,1.91,34770
642,1.26,16675
643,1.15,16008
644,2.74,55468
645,1.33,21270
646,0.01,23
647,2.37,50965
648,2.91,60303
649,1.49,26690
650,1.97,41395
651,2.06,41880
652,3.66,86634
653,1.48,26873
654,2.28,48926
655,0.72,7955
656,4.96,105493
657,1.8,31913
658,0.4,3959
659,1.24,17958
660,1.38,21253
661,1.43,25642
662,2.64,55760
663,0.01,20
664,1.71,35085
665,2.46,50946
666,1.43,21897
667,3.28,70640
668,1.51,27932
669,2.14,44272
670,2.14,44820
671,2.31,47750
672,1.74,36701
673,2.74,58960
674,0.9,9753
675,4.64,102104
676,7.26,158671
677,5.42,120127
678,6.52,147973
679,8.38,185786
680,7.02,162694
681,12.54,265112
682,1.97,37808
683,6.8,162871
684,8.32,178630
685,10.82,243868
686,33.81,581538
687,0.48,6209
688,18.81,371693
689,0.44,5647
690,25.87,483389
691,9.64,209189
692,10.89,235669
693,3.32,77742
694,6.73,155018
695,0.92,13766
696,5.36,119593
697,1.37,23738
698,3.51,79394
699,3.99,88471
700,2.84,58053
701,0.56,7158
702,3.08,63370
703,6.86,142599
704,0.69,7939
705,5.58,118279
706,7.76,151192
707,0.89,11085
708,0.98,13519
709,3.5,70783
710,7.02,139730
711,4.26,85020
712,5.66,114848
713,7.11,135791
714,2.03,40763
715,1.97,41101
716,2.22,43755
717,1.87,33676
718,2.33,50978
719,1.64,26383
720,4.31,95568
721,5.37,118773
722,2.02,41225
723,5.57,125503
724,0.88,9564
725,2.01,44630
726,1.49,28160
727,4.06,91144
728,6.0,131483
729,1.24,19470
730,2.39,49462
731,1.96,37768
732,0.6,6671
733,1.58,24086
734,1.7,31073
735,2.27,44883
736,2.46,55230
737,2.19,46327
738,3.59,79641
739,1.92,37798
740,3.05,63406
741,1.29,19766
742,2.15,44240
743,2.66,59108
744,0.55,5569
745,1.4,19327
746,1.82,34781
747,2.06,38229
748,2.33,47861
749,0.52,5620
750,1.27,17142
751,1.89,36097
752,2.5,50683
753,2.11,39037
754,1.17,12312
755,1.35,20227
756,0.96,9600
757,1.21,15135
758,1.76,31658
759,1.66,28992
760,2.11,41249
761,2.15,41164
762,1.2,15083
763,1.86,33178
764,1.33,15939
765,1.25,14391
766,1.8,27684
767,3.14,62616
768,1.88,33511
769,1.7,28971
770,3.65,72013
771,1.63,26599
772,1.39,23220
773,1.47,26433
774,1.1,15709
775,1.19,15598
776,1.83,37021
777,5.17,116833
778,3.34,77874
779,1.23,19223
780,2.1,43832
781,1.74,34099
782,1.56,28396
783,1.59,28943
784,1.38,19489
785,2.68,53590
786,1.28,18759
787,0.99,12158
788,1.77,36196
789,1.62,32942
790,1.81,34647
791,1.5,26085
792,0.35,3121
793,1.22,15746
794,1.5,23502
795,1.44,27465
796,1.88,38470
797,1.8,31851
798,1.58,26924
799,1.41,20293
800,0.77,8238
801,1.74,23893
802,1.11,11310
803,1.39,23789
804,1.43,23444
805,1.33,20596
806,1.38,21266
807,1.48,26400
808,1.29,18910
809,1.42,21931
810,1.76,32286
811,2.32,46736
812,1.74,29504
813,1.97,36251
814,2.0,29148
815,4.4,81607
816,1.57,26880
817,6.56,143140
818,3.31,72525
819,2.07,45307
820,1.22,18418
821,1.79,36925
822,2.82,64727
823,1.24,17849
824,1.37,23464
825,1.4,21148
826,2.9,62760
827,1.95,38680
828,3.72,87268
829,2.34,48843
830,5.81,129134
831,1.98,36644
832,2.14,40638
833,1.96,36050
834,2.24,39295
835,3.0,61288
836,6.18,132153
837,6.91,150828
838,2.46,48191
839,4.96,108570
840,3.28,65173
841,6.44,135343
842,0.01,57
843,0.01,32
844,2.9,66323
845,5.56,127498
846,3.24,77912
847,10.93,245272
848,0.01,54
849,5.13,117650
850,3.22,70504
851,0.01,49
852,5.39,112892
853,5.77,123804
854,0.01,49
855,2.84,63604
856,6.58,140132
857,6.03,128105
858,1.85,30762
859,7.08,149728
860,8.18,178461
861,4.36,98904
862,2.57,60907
863,2.0,39513
864,3.23,75831
865,2.55,53339
866,3.27,75567
867,3.13,70019
868,3.2,73578
869,1.75,35469
870,2.27,44114
871,2.87,63955
872,1.75,36544
873,6.16,142745
874,1.36,22213
875,1.34,19606
876,2.12,41419
877,1.6,36016
878,1.51,25614
879,2.66,52409
880,1.3,19947
881,2.2,46021
882,2.18,40687
883,1.54,25704
884,2.29,51084
885,2.34,47272
886,1.77,28067
887,1.13,12012
888,2.11,34499
889,3.87,75370
890,1.25,16380
891,2.53,45179
892,1.51,22868
893,1.52,25959
894,1.51,26663
895,1.67,29241
896,2.76,61509
897,2.38,54331
898,2.23,42626
899,2.93,63689
900,1.94,39158
901,2.25,40614
902,1.54,20068
903,2.64,47374
904,1.31,21069
905,1.52,25087
906,1.79,33927
907,2.3,41113
908,1.65,31808
909,2.66,49128
910,2.52,54128
911,3.39,67280
912,2.57,51553
913,2.85,52353
914,2.93,70003
915,5.84,129705
916,6.27,142425
917,4.28,97005
918,3.05,62772
919,4.64,102038
920,3.18,69189
921,2.24,44141
922,2.83,58076
923,2.19,42781
924,1.81,34922
925,2.92,59083
926,2.1,40786
927,4.75,90134
928,2.68,51419
929,4.72,89435
930,3.39,73079
931,2.18,45420
932,3.76,84250
933,3.19,69787
934,3.64,80810
935,4.66,107414
936,0.01,66
937,3.15,68260
938,2.58,47271
939,2.22,47602
940,4.83,92186
941,4.03,78358
942,5.8,116604
943,5.72,113858
944,7.6,157576
945,5.43,105131
946,5.46,118917
947,4.9,97984
948,10.85,216088
949,0.01,56
950,0.01,72
951,0.01,55
952,9.73,207553
953,0.01,70
954,0.02,43
955,8.07,183631
956,3.0,64677
957,0.01,15
958,3.68,77968
959,4.19,91871
960,7.09,156454
961,7.78,176008
962,0.01,30
963,0.01,33
964,2.95,61846
965,7.26,166661
966,5.12,106784
967,0.01,36
968,3.74,76689
969,6.87,148021
970,0.01,40
971,0.02,121
972,4.92,113459
973,5.05,115281
974,3.24,78342
975,1.7,31636
976,5.29,123457
977,5.08,112035
978,4.71,108084
979,6.05,143569
980,0.01,40
981,6.14,112543
982,4.02,82170
983,5.23,113557
984,2.49,49729
985,6.03,123217
986,4.28,83282
987,4.87,92035
988,2.13,39860
989,2.19,40829
990,2.91,69070
991,3.1,72780
992,1.17,15302
993,1.39,19089
994,0.67,6824
995,1.8,37263
996,0.87,9169
997,2.55,53940
998,1.38,20704
999,0.77,8161
1000,1.52,23257
1001,1.58,24402
1002,1.87,35239
1003,1.67,27916
1004,1.57,27615
1005,1.46,21925
1006,1.61,28044
1007,2.0,31426
1008,1.11,11190
1009,2.01,37962
1010,2.28,43450
1011,1.04,9355
1012,1.79,27607
1013,2.2,34749
1014,3.38,60300
1015,2.48,44777
1016,1.25,19971
1017,1.69,34276
1018,2.9,68155
1019,2.33,44187
1020,1.91,33869
1021,1.1,15013
1022,3.27,68833
1023,0.95,9877
1024,0.73,7643
1025,1.8,33986
1026,2.73,52609
1027,1.94,39720
1028,1.28,11874
1029,1.91,30524
1030,3.11,58414
1031,2.22,40745
1032,1.87,30063
1033,0.56,5517
1034,0.95,9778
1035,2.2,38520
1036,2.26,36909
1037,1.47,22723
1038,1.76,31771
1039,1.86,35521
1040,2.46,48978
1041,2.1,39396
1042,2.94,51928
1043,2.55,47318
1044,1.36,18814
1045,1.42,17060
1046,2.89,63951
1047,2.29,46681
1048,2.9,65900
1049,3.71,80463
1050,2.31,41374
1051,5.04,102623
1052,2.48,45965
1053,4.19,84220
1054,3.11,63465
1055,2.38,48236
1056,3.26,63348
1057,0.01,26
1058,3.52,86800
1059,5.95,130447
1060,5.69,125301
1061,2.64,50964
1062,4.42,95477
1063,2.7,55589
1064,3.64,81867
1065,2.0,38912
1066,3.69,84395
1067,0.02,100
1068,3.9,86138
1069,5.69,126580
1070,6.03,133856
1071,6.54,149192
1072,7.37,160134
1073,3.24,71735
1074,0.01,55
1075,3.16,64811
1076,7.37,162972
1077,5.9,135094
1078,6.54,150246
1079,3.0,60367
1080,1.84,36256
1081,2.9,61513
1082,0.01,35
1083,2.04,39666
1084,3.4,78156
1085,2.68,57595
1086,3.93,97953
1087,5.06,118047
1088,3.36,77496
1089,3.38,71625
1090,2.05,42999
1091,5.74,128470
1092,3.28,67170
1093,4.91,99313
1094,3.14,60911
1095,3.96,75308
1096,3.47,71037
1097,5.55,114605
1098,1.47,17092
1099,5.02,101985
1100,1.92,30430
1101,3.85,77023
1102,2.08,38482
1103,2.31,42682
1104,2.02,30864
1105,2.6,47151
1106,2.74,48852
1107,2.0,33799
1108,2.44,41112
1109,1.83,32018
1110,2.78,57510
1111,1.74,27905
1112,1.86,28829
1113,4.42,83810
1114,4.7,91428
1115,2.74,55813
1116,3.0,60486
1117,0.01,20
1118,3.65,78284
1119,0.01,43
1120,2.92,57103
1121,2.21,45242
1122,3.9,87952
1123,4.42,84646
1124,1.58,26688
1125,5.69,115845
1126,8.19,173385
1127,2.55,51842
1128,3.57,77973
1129,5.07,98207
1130,1.67,30853
1131,5.44,113978
1132,9.43,192830
1133,1.31,20020
1134,0.91,8572
1135,1.6,28646
1136,1.42,21038
1137,1.54,26021
1138,1.35,19904
1139,1.81,34943
1140,1.55,26552
1141,1.69,30700
1142,1.87,28455
1143,1.22,14142
1144,1.97,37759
1145,3.08,63533
1146,1.88,28514
1147,1.11,12062
1148,1.85,32943
1149,4.02,72449
1150,4.92,90476
1151,3.05,69977
1152,3.24,70708
1153,2.68,50087
1154,1.99,38080
1155,2.51,56962
1156,1.76,36967
1157,2.24,43686
1158,2.82,53091
1159,1.55,23102
1160,3.07,65525
1161,2.58,53518
1162,2.18,37273
1163,2.28,43952
1164,3.28,68207
1165,2.6,51409
1166,1.53,22366
1167,2.51,44235
1168,0.67,6444
1169,1.46,22989
1170,2.01,38086
1171,2.06,40246
1172,2.34,49310
1173,1.34,21969
1174,2.58,50577
1175,1.81,28233
1176,1.17,13511
1177,2.43,38012
1178,2.14,35746
1179,4.7,92769
1180,1.43,20819
1181,1.46,25787
1182,2.05,39779
1183,1.52,22256
1184,4.22,95398
1185,3.81,88701
1186,4.0,93371
1187,5.14,118378
1188,1.15,14212
1189,1.63,28167
1190,1.12,16371
1191,2.09,43983
1192,3.99,93529
1193,2.57,50511
1194,2.71,59590
1195,2.08,41311
1196,3.74,84098
1197,2.8,65297
1198,3.33,75031
1199,1.74,32348
1200,2.37,49740
1201,1.65,22744
1202,2.56,44609
1203,1.42,20143
1204,2.47,48198
1205,5.3,109719
1206,3.56,75790
1207,1.55,27305
1208,1.87,30501
1209,1.73,32156
1210,2.92,55003
1211,3.94,88558
1212,2.64,45998
1213,5.51,117804
1214,4.4,94011
1215,1.91,41685
1216,2.54,49368
1217,4.43,99371
1218,5.07,106831
1219,4.85,105983
1220,3.28,71394
1221,4.73,96165
1222,4.06,85709
1223,3.5,67396
1224,1.61,26566
1225,5.16,100468
1226,1.46,21382
1227,1.93,35028
1228,1.64,27559
1229,2.9,54168
1230,2.31,39844
1231,2.67,49393
1232,1.68,32189
1233,2.54,54496
1234,2.26,42430
1235,3.21,68662
1236,3.39,71885
1237,2.28,39383
1238,2.1,37441
1239,2.42,47833
1240,2.56,50378
1241,1.85,28790
1242,2.32,41537
1243,1.47,21987
1244,0.65,6689
1245,1.97,33961
1246,1.53,21001
1247,1.97,37451
1248,1.67,23029
1249,1.95,33715
1250,3.04,54978
1251,1.5,20319
1252,2.09,37362
1253,1.95,33021
1254,1.8,31222
1255,3.32,58911
1256,2.32,48015
1257,3.23,62464
1258,3.14,59225
1259,5.08,94070
1260,1.38,16526
1261,3.07,50323
1262,4.06,83217
1263,3.59,68161
1264,6.78,137000
1265,1.77,26466
1266,2.76,49144
1267,4.78,97443
1268,3.0,54585
1269,3.4,63777
1270,3.57,66993
1271,2.18,35371
1272,1.97,33201
1273,3.77,65713
1274,1.76,31157
1275,1.7,30557
1276,1.86,31111
1277,3.27,64196
1278,4.22,88475
1279,3.34,61562
1280,5.61,114652
1281,2.17,39822
1282,5.02,107085
1283,4.42,95367
1284,2.52,49735
1285,4.52,94445
1286,1.47,22641
1287,1.75,29438
1288,1.84,28943
1289,1.57,23310
1290,2.92,55751
1291,2.23,40604
1292,1.95,33490
1293,3.1,62827
1294,2.2,43718
1295,4.82,101434
1296,3.62,73233
1297,3.36,71054
1298,4.53,95515
1299,5.71,122357
1300,6.16,127616
1301,3.36,68782
1302,2.16,40221
1303,2.74,50723
1304,0.01,21
1305,2.25,39504
1306,2.37,49546
1307,4.12,89802
1308,4.1,80225
1309,1.7,30625
1310,2.69,51324
1311,6.18,131297
1312,3.08,57048
1313,1.88,29506
1314,1.47,25990
1315,2.82,54841
1316,1.31,14295
1317,2.35,36685
1318,1.12,9651
1319,2.11,33745
1320,1.37,17422
1321,1.76,25430
1322,2.8,51942
1323,1.21,16394
1324,1.55,25782
1325,2.38,40034
1326,3.1,57597
1327,2.46,50372
1328,4.38,82916
1329,2.11,33287
1330,1.58,24421
1331,2.45,42716
1332,0.86,7236
1333,1.22,14257
1334,0.68,7084
1335,0.99,7875
1336,2.46,41415
1337,1.46,22535
1338,2.94,53338
1339,2.34,39418
1340,1.44,15957
1341,1.33,17521
1342,3.67,60988
1343,2.16,39189
1344,1.46,27218
1345,3.16,61720
1346,1.46,20183
1347,1.93,27508
1348,3.16,58775
1349,1.05,13077
1350,1.32,17137
1351,3.66,70361
1352,5.09,102039
1353,3.05,55673
1354,4.86,95588
1355,1.93,33010
1356,1.48,25294
1357,2.6,45473
1358,1.61,21999
1359,0.01,29
1360,1.47,18038
1361,2.57,47396
1362,1.38,20038
1363,2.89,57443
1364,2.98,55750
1365,1.38,18691
1366,3.42,59494
1367,1.65,26937
1368,2.22,48601
1369,3.67,73993
1370,0.02,45
1371,1.66,27120
1372,2.9,59639
1373,7.51,150698
1374,2.57,46259
1375,5.66,116087
1376,3.0,52735
1377,0.57,5643
1378,2.36,40016
1379,1.68,30757
1380,5.27,114041
1381,1.21,14677
1382,4.16,81322
1383,5.0,99180
1384,5.04,99507
1385,10.62,204723
1386,2.46,45189
1387,1.94,36434
1388,1.72,27896
1389,8.74,165824
1390,0.02,53
1391,2.18,39457
1392,3.08,64746
1393,1.45,22977
1394,3.75,73431
1395,4.0,79974
1396,3.64,71430
1397,2.65,52627
1398,1.42,28150
1399,3.39,71302
1400,2.63,49072
1401,2.78,53441
1402,1.64,32718
1403,5.21,107006
1404,8.06,164595
1405,3.95,80058
1406,2.16,47602
1407,4.63,94193
1408,5.52,112598
1409,5.44,112615
1410,4.66,89810
1411,6.62,132025
1412,6.01,119828
1413,4.96,102442
1414,3.59,76442
1415,4.12,86966
1416,1.92,31968
1417,1.15,12473
1418,0.92,9397
1419,1.27,17724
1420,0.81,8339
1421,1.79,28900
1422,1.79,30363
1423,2.19,44943
1424,1.81,26073
1425,1.15,12068
1426,1.33,20909
1427,3.68,68927
1428,0.71,7154
1429,2.88,50813
1430,1.24,15801
1431,0.91,8432
1432,1.24,15918
1433,2.49,40006
1434,2.6,45994
1435,3.83,70522
1436,1.68,21191
1437,2.53,39254
1438,7.55,144548
1439,3.12,58583
1440,1.25,15821
1441,1.03,9233
1442,1.38,20780
1443,1.6,26782
1444,3.5,65099
1445,1.27,14985
1446,3.67,63292
1447,0.43,3856
1448,1.28,15812
1449,2.22,35442
1450,0.35,3262
1451,1.02,9939
1452,0.48,4055
1453,0.16,1585
1454,1.25,13993
1455,1.08,12387
1456,1.86,29209
1457,1.12,12285
1458,4.85,89379
1459,1.29,18255
1460,2.34,43128
1461,1.31,17475
1462,1.38,16988
1463,1.58,22659
1464,1.56,22601
1465,1.2,11821
1466,1.78,28627
1467,3.02,55146
1468,1.47,21715
1469,1.39,16893
1470,0.35,3279
1471,1.39,19088
1472,1.26,13414
1473,3.05,57101
1474,1.98,33791
1475,1.66,24834
1476,3.57,73416
1477,1.27,12656
1478,2.8,48196
1479,1.76,28457
1480,1.51,23064
1481,1.56,22512
1482,3.27,61910
1483,1.96,29785
1484,4.15,81458
1485,1.93,28490
1486,2.79,49917
1487,3.23,64479
1488,5.46,102074
1489,2.78,56208
1490,2.01,35955
1491,3.33,62418
1492,1.56,24558
1493,0.53,5487
1494,2.27,40972
1495,1.5,22315
1496,1.69,28310
1497,2.55,46242
1498,2.3,40730
1499,1.85,27850
1500,3.26,56874
1501,1.86,28862
1502,1.13,11945
1503,2.08,31751
1504,1.49,23348
1505,1.65,28909
1506,2.19,44193
1507,1.05,12121
1508,3.6,68721
1509,1.34,19845
1510,1.67,25570
1511,1.46,18826
1512,1.36,20196
1513,1.77,27945
1514,1.65,26974
1515,4.14,70426
1516,0.65,5897
1517,1.45,18878
1518,2.39,40298
1519,1.68,23123
1520,2.82,46655
1521,2.62,50218
1522,8.43,166417
1523,1.63,27997
1524,2.98,54640
1525,1.15,11021
1526,1.12,12897
1527,0.65,6372
1528,2.59,45561
1529,1.64,25097
1530,2.48,46206
1531,3.16,59105
1532,1.27,17073
1533,1.23,12489
1534,1.91,28189
1535,3.37,61078
1536,1.2,13631
1537,0.54,5086
1538,1.45,18115
1539,0.19,1766
1540,0.66,6736
1541,3.87,70562
1542,1.69,22166
1543,2.07,41926
1544,1.99,36413
1545,4.78,105969
1546,2.48,49008
1547,1.17,15563
1548,1.76,34866
1549,1.91,36754
1550,1.17,11126
1551,1.41,25023
1552,1.88,33534
1553,1.53,27903
1554,2.0,42473
1555,1.09,13081
1556,1.42,22839
1557,1.09,13829
1558,1.66,25843
1559,1.59,25639
1560,2.02,34487
1561,1.8,30194
1562,1.93,31269
1563,1.29,13956
1564,0.8,7136
1565,1.46,14413
1566,0.83,9314
1567,1.73,27817
1568,1.52,23521
1569,3.04,46318
1570,2.69,49540
1571,1.99,38292
1572,1.84,35145
1573,4.22,89447
1574,5.17,108131
1575,1.02,15630
1576,3.86,86544
1577,1.43,22886
1578,7.04,150412
1579,5.16,114136
1580,31.54,557088
1581,1.54,24539
1582,1.62,29984
1583,1.55,29509
1584,2.3,50120
1585,1.87,36264
1586,7.14,153223
1587,1.28,20468
1588,3.11,61460
1589,3.44,68788
1590,1.84,30161
1591,2.92,61318
1592,1.14,15175
1593,1.32,15203
1594,0.99,12816
1595,1.12,12557
1596,1.51,24834
1597,0.81,8636
1598,1.44,18803
1599,1.95,39582
1600,1.99,38111
1601,4.93,107872
1602,2.25,46031
1603,2.17,45505
1604,1.84,33264
1605,1.72,31861
1606,6.01,138825
1607,1.35,20327
1608,1.67,31332
1609,2.83,64062
1610,3.55,78333
1611,1.27,20824
1612,1.44,22725
1613,3.57,79173
1614,1.65,26400
1615,1.52,24486
1616,1.78,31420
1617,1.52,22401
1618,1.41,23596
1619,1.91,37027
1620,1.3,16860
1621,1.38,19606
1622,2.06,38001
1623,1.9,36346
1624,2.34,47749
1625,1.3,22718
1626,2.0,46891
1627,3.91,90506
1628,5.51,122562
1629,0.01,55
1630,3.55,75375
1631,2.68,61359
1632,1.89,39018
1633,2.15,40887
1634,0.97,9703
1635,0.63,6835
1636,1.81,35097
1637,1.27,20643
1638,3.09,67136
1639,0.01,89
1640,2.2,43584
1641,1.8,34631
1642,2.31,46616
1643,1.88,37795
1644,1.56,28322
1645,1.48,24544
1646,1.79,29938
1647,1.65,23921
1648,2.39,43323
1649,0.53,5469
1650,0.92,9558
1651,1.4,17351
1652,0.69,6847
1653,1.65,23533
1654,1.6,20939
1655,2.74,49076
1656,1.38,17911
1657,1.42,16945
1658,1.97,36503
1659,1.94,38672
1660,2.13,41531
1661,1.4,23530
1662,2.51,48576
1663,0.02,80
1664,2.57,49315
1665,1.58,26619
1666,2.13,41366
1667,1.63,21732
1668,0.76,7521
1669,1.47,18630
1670,2.22,41933
1671,1.54,26639
1672,3.84,69264
1673,0.57,4813
1674,2.06,31926
1675,1.6,23276
1676,1.15,14005
1677,2.25,45846
1678,2.44,39253
1679,1.38,20411
1680,4.33,85976
1681,2.81,43309
1682,1.45,22678
1683,4.92,91870
1684,0.02,108
1685,0.6,4792
1686,2.62,40636
1687,0.01,52
1688,1.42,23945
1689,1.74,33162
1690,1.76,31456
1691,1.45,24357
1692,3.14,55530
1693,0.01,26
1694,1.46,22405
1695,1.78,32726
1696,1.17,16553
1697,1.35,20253
1698,1.44,21667
1699,1.33,20190
1700,1.57,23379
1701,1.4,21694
1702,1.29,18582
1703,1.14,12685
1704,1.39,16112
1705,0.72,7172
1706,1.28,11113
1707,1.17,16363
1708,1.04,11406
1709,1.15,14032
1710,1.56,24257
1711,1.05,14140
1712,1.61,25188
1713,1.48,22556
1714,2.88,45123
1715,1.56,29305
1716,1.26,20247
1717,1.44,23389
1718,1.4,20330
1719,1.6,26406
1720,1.26,15835
1721,1.75,26424
1722,0.01,72
1723,1.63,26148
1724,2.31,42219
1725,1.81,33795
1726,2.4,45217
1727,1.41,20231
1728,1.92,28270
1729,0.01,27
1730,1.9,33247
1731,3.6,63544
1732,5.47,116313
1733,2.58,53030
1734,1.19,17385
1735,1.72,28913
1736,1.28,19170
1737,2.26,43664
1738,1.44,23006
1739,1.69,31500
1740,2.57,51960
1741,2.47,48654
1742,2.49,48730
1743,2.95,59963
1744,2.51,49135
1745,0.9,9519
1746,3.22,65572
1747,1.57,23949
1748,1.29,22015
1749,1.82,28024
1750,2.13,34697
1751,2.06,42851
1752,1.45,23614
1753,1.59,25895
1754,1.07,11747
1755,1.68,26044
1756,2.16,45847
1757,1.92,38582
1758,1.52,24833
1759,3.81,80705
1760,3.32,73175
1761,1.72,30527
1762,1.06,12761
1763,1.94,33107
1764,1.26,18480
1765,1.76,23769
1766,1.94,29953
1767,2.72,59015
1768,1.38,20181
1769,2.05,38114
1770,1.36,20001
1771,1.98,39401
1772,1.34,20330
1773,2.36,51483
1774,2.31,44257
1775,1.49,23776
1776,2.36,46910
1777,2.74,58223
1778,1.53,21844
1779,1.16,9424
1780,1.49,20720
1781,1.58,18596
1782,2.59,41026
1783,0.2,1817
1784,1.17,9534
1785,1.32,16586
1786,1.54,16942
1787,2.73,41669
1788,2.35,46168
1789,1.75,30940
1790,3.72,63671
1791,1.25,14783
1792,0.55,5237
1793,2.34,36680
1794,2.25,43396
1795,1.84,30136
1796,2.54,50567
1797,1.98,34217
1798,2.54,42206
1799,1.47,20353
1800,2.56,41311
1801,2.17,40587
1802,5.37,104482
1803,2.68,49049
1804,6.07,115001
1805,1.05,12074
1806,0.59,6339
1807,1.59,25364
1808,1.3,20424
1809,2.23,42657
1810,1.51,25496
1811,2.83,62595
1812,3.0,58629
1813,2.46,49254
1814,2.3,46651
1815,0.71,7470
1816,1.44,17572
1817,2.6,44482
1818,0.59,6339
1819,0.21,2059
1820,1.35,13377
1821,2.18,37075
1822,1.31,18515
1823,2.62,53347
1824,2.12,35239
1825,2.38,42847
1826,1.22,18038
1827,1.51,22263
1828,2.77,55210
1829,1.08,14839
1830,1.05,14352
1831,1.53,25978
1832,2.68,50213
1833,2.75,43775
1834,4.57,88588
1835,3.08,55118
1836,2.62,44039
1837,3.58,65621
1838,3.1,52383
1839,0.01,79
1840,1.66,28937
1841,1.51,21082
1842,2.11,44511
1843,1.54,24650
1844,1.99,35850
1845,1.28,18736
1846,1.44,18834
1847,0.98,12617
1848,1.14,14568
1849,1.32,19258
1850,1.63,24981
1851,2.2,40046
1852,0.34,3698
1853,2.43,44250
1854,1.55,23257
1855,1.45,20837
1856,1.14,14493
1857,1.53,25176
1858,1.66,25237
1859,0.8,8370
1860,1.49,19016
1861,0.97,8799
1862,1.2,12335
1863,1.35,13181
1864,2.24,34243
1865,1.02,10253
1866,1.43,19264
1867,1.05,9821
1868,1.36,13098
1869,1.79,22297
1870,2.41,36037
1871,2.38,42665
1872,1.74,27746
1873,0.38,4219
1874,2.3,41142
1875,1.79,25766
1876,1.43,19955
1877,3.15,54022
1878,0.61,6031
1879,0.58,6147
1880,1.45,17447
1881,1.07,9187
1882,1.73,25425
1883,1.67,22305
1884,1.85,27169
1885,1.65,21805
1886,1.44,21869
1887,3.41,61174
1888,1.61,21828
1889,2.75,46010
1890,1.48,22708
1891,3.4,60105
1892,1.67,23710
1893,1.33,15807
1894,2.78,43836
1895,1.71,29028
1896,2.05,35559
1897,1.77,29573
1898,1.85,32563
1899,1.75,27962
1900,3.24,50921
1901,1.73,27091
1902,3.52,58194
1903,1.49,20158
1904,2.34,31215
1905,1.44,17569
1906,2.47,34386
1907,1.33,15955
1908,0.62,6129
1909,1.38,12803
1910,0.71,7104
1911,1.03,7911
1912,0.68,5130
1913,1.36,14602
1914,2.16,29814
1915,1.03,9755
1916,0.55,4369
1917,0.35,2768
1918,0.46,3755
1919,1.9,30258
1920,1.44,22034
1921,2.88,43960
1922,1.32,17229
1923,3.1,47695
1924,2.42,37346
1925,1.97,24596
1926,5.48,90322
1927,1.57,22492
1928,1.72,23103
1929,1.13,10810
1930,0.75,7101
1931,1.69,22609
1932,0.64,6374
1933,0.6,5351
1934,1.38,14408
1935,1.02,9055
1936,0.52,4421
1937,1.02,9050
1938,0.64,5814
1939,0.62,5593
1940,0.65,5864
1941,0.47,4006
1942,1.22,11283
1943,1.05,11040
1944,1.53,16332
1945,0.42,3891
1946,1.02,10824
1947,1.38,14696
1948,2.28,32421
1949,1.35,14572
1950,0.57,4371
1951,1.71,28191
1952,1.39,21713
1953,2.84,46780
1954,2.95,50354
1955,2.82,46654
1956,7.42,129223
1957,1.19,12181
1958,2.42,38757
1959,1.12,11421
1960,0.78,7999
1961,1.61,22995
1962,0.85,8332
1963,1.3,14787
1964,1.31,15239
1965,0.99,9078
1966,2.08,28296
1967,1.39,19868
1968,1.09,11152
1969,1.74,23382
1970,1.42,21846
1971,2.04,36271
1972,1.63,28230
1973,3.17,55456
1974,1.45,20107
1975,1.53,19272
1976,1.39,21033
1977,0.54,5105
1978,1.46,14969
1979,1.34,18739
1980,0.95,8589
1981,2.48,40083
1982,0.5,4988
1983,1.38,14467
1984,0.56,4898
1985,0.61,5026
1986,0.61,5220
1987,2.32,44008
1988,1.89,33682
1989,3.82,69444
1990,1.63,25336
1991,2.39,43269
1992,1.51,20942
1993,1.39,17897
1994,1.17,12334
1995,0.58,5886
1996,2.66,43490
1997,2.26,41606
1998,1.73,28720
1999,1.62,22111
2000,2.64,51683
2001,1.99,31865
2002,3.81,76704
2003,3.78,73038
2004,1.67,28815
2005,1.63,27182
2006,2.66,43761
2007,1.02,10068
2008,1.66,21066
2009,0.49,4533
2010,1.04,10089
2011,1.0,10023
2012,1.26,15457
2013,2.45,36005
2014,0.75,7818
2015,1.85,24775
2016,1.23,17187
2017,2.96,49435
2018,1.7,19792
2019,2.61,45405
2020,2.42,41534
2021,7.39,136130
2022,1.99,32205
2023,1.73,24659
2024,0.01,51
2025,1.21,13465
2026,2.39,37278
2027,0.54,5300
2028,1.12,12779
2029,0.31,3344
2030,0.27,2163
2031,1.53,20712
2032,1.24,11318
2033,0.49,5502
2034,0.19,1903
2035,0.6,5567
2036,1.94,26487
2037,0.33,2824
2038,0.26,2090
2039,1.7,19557
2040,1.36,16745
2041,1.47,18496
2042,1.2,11651
2043,3.3,54003
2044,1.38,21572
2045,2.49,42065
2046,1.47,18260
2047,1.97,32271
2048,1.57,17244
2049,2.21,34774
2050,5.22,90001
2051,0.55,4929
2052,0.74,6793
2053,0.34,2542
2054,1.09,11851
2055,0.52,5207
2056,1.22,11972
2057,1.84,28313
2058,1.95,27437
2059,1.59,22540
2060,2.51,45087
2061,3.39,67826
2062,4.25,82894
2063,3.88,67529
2064,3.32,65901
2065,1.42,19999
2066,2.07,32292
2067,5.12,92178
2068,1.34,20700
2069,2.13,34412
2070,1.01,9773
2071,1.9,33278
2072,3.4,67137
2073,3.45,61733
2074,1.22,15754
2075,0.01,37
2076,1.66,21433
2077,2.45,39134
2078,1.88,28001
2079,3.56,70146
2080,0.77,7118
2081,0.47,4227
2082,1.17,13301
2083,1.13,16639
2084,1.92,33702
2085,2.02,33946
2086,1.68,25746
2087,4.07,75449
2088,0.97,9900
2089,1.6,22298
2090,1.8,30962
2091,1.64,24258
2092,1.19,11867
2093,2.45,46048
2094,3.47,67844
2095,0.19,1695
2096,1.49,20514
2097,1.72,23224
2098,2.48,47248
2099,0.77,6871
2100,2.46,44938
2101,2.8,45477
2102,0.1,828
2103,1.0,9157
2104,1.37,19764
2105,1.04,9985
2106,4.09,74292
2107,0.22,1872
2108,1.72,26505
2109,1.58,22118
2110,1.4,19300
2111,1.98,27364
2112,0.72,6014
2113,0.98,7921
2114,4.61,85963
2115,1.57,16756
2116,0.75,6012
2117,0.56,4008
2118,3.25,52329
2119,2.17,43328
2120,2.54,52027
2121,12.63,269877
2122,1.6,30684
2123,4.72,110594
2124,1.76,33227
2125,6.44,144895
2126,1.61,29577
2127,1.38,23662
2128,2.33,43224
2129,2.35,42059
2130,0.98,10858
2131,2.68,52271
2132,3.62,72610
2133,2.75,60292
2134,6.85,156132
2135,2.85,68190
2136,1.59,30905
2137,1.92,36043
2138,2.24,50137
2139,2.93,60186
2140,6.14,139045
2141,4.45,99170
2142,2.08,40450
2143,24.16,430212
2144,4.57,99852
2145,1.42,23901
2146,5.73,128520
2147,0.01,79
2148,2.25,42375
2149,2.75,53705
2150,0.78,9072
2151,0.02,128
2152,1.24,18514
2153,2.32,47805
2154,4.77,98392
2155,1.47,25204
2156,1.67,32893
2157,1.91,35459
2158,0.02,61
2159,2.04,38581
2160,1.92,35541
2161,0.01,51
2162,0.02,202
2163,0.02,93
2164,0.02,94
2165,9.61,177856
2166,9.92,177535
2167,0.02,153
2168,0.02,86
2169,0.01,53
2170,0.02,96
2171,4.53,88135
2172,4.47,80991
2173,0.02,109
2174,6.84,128878
2175,5.15,95738
2176,3.94,89091
2177,0.02,124
2178,0.02,63
2179,24.19,433263
2180,6.66,136351
2181,1.56,27500
2182,1.8,34402
2183,5.43,119570
2184,0.02,169
2185,1.67,31576
2186,2.18,41617
2187,2.42,48986
2188,2.56,54699
2189,4.57,100560
2190,4.48,98675
2191,1.25,19416
2192,1.21,20347
2193,1.12,16157
2194,1.25,18850
2195,5.31,109425
2196,5.25,108463
2197,20.11,350312
2198,1.22,19473
2199,1.18,17995
2200,1.63,27068
2201,5.55,111209
2202,2.89,58980
2203,6.81,146361
2204,1.71,36129
2205,1.03,11136
2206,1.48,19704
2207,0.02,109
2208,3.06,58708
2209,12.52,252690
2210,0.02,170
2211,1.86,37804
2212,1.99,35386
2213,8.04,157609
2214,0.93,12657
2215,0.01,26
2216,0.01,44
2217,2.32,43256
2218,0.01,15
2219,3.91,69540
2220,2.54,56625
2221,3.38,67757
2222,3.93,75066
2223,5.61,121773
2224,1.08,17925
2225,1.03,15268
2226,7.87,161061
2227,2.44,47325
2228,9.39,198649
2229,3.42,73009
2230,1.15,14450
2231,3.55,74998
2232,0.01,67
2233,3.63,71289
2234,1.94,40210
2235,9.68,197071
2236,2.14,44895
2237,2.3,43350
2238,7.49,140388
2239,1.53,21060
2240,0.02,104
2241,3.37,66598
2242,0.83,9729
2243,1.05,10877
2244,5.58,106374
2245,0.01,68
2246,1.13,13654
2247,1.42,20178
2248,1.49,20229
2249,3.42,61066
2250,2.91,55567
2251,5.41,111155
2252,1.91,39877
2253,1.44,22776
2254,1.66,31740
2255,3.94,81350
2256,2.0,33364
2257,3.22,65235
2258,7.57,146064
2259,2.12,39042
2260,1.92,39648
2261,2.42,50255
2262,2.28,46372
2263,1.55,25889
2264,1.19,15625
2265,1.27,16613
2266,1.55,25533
2267,5.01,100914
2268,1.49,20389
2269,1.5,23451
2270,1.79,30428
2271,2.22,42449
2272,1.5,18520
2273,4.27,77484
2274,1.42,22338
2275,1.17,15565
2276,1.15,13362
2277,1.41,17180
2278,1.82,34262
2279,1.5,24400
2280,1.36,18864
2281,1.71,27674
2282,1.43,21845
2283,1.95,33440
2284,1.54,25682
2285,5.82,120188
2286,0.02,108
2287,3.16,64206
2288,4.89,105981
2289,2.2,43674
2290,32.39,583532
2291,4.81,106114
2292,4.86,107472
2293,2.42,51141
2294,1.64,27367
2295,2.56,54718
2296,2.29,45048
2297,1.92,35654
2298,1.85,33515
2299,2.58,49834
2300,5.25,114058
2301,2.13,43498
2302,1.91,41652
2303,1.8,33186
2304,1.09,15030
2305,2.19,44302
2306,1.51,25205
2307,2.21,44243
2308,1.86,34286
2309,1.78,34179
2310,0.02,54
2311,1.44,23483
2312,1.72,29555
2313,0.01,18
2314,1.71,26685
2315,2.56,49503
2316,2.12,37245
2317,5.11,89569
2318,1.9,32113
2319,4.67,84466
2320,1.47,24850
2321,1.77,36901
2322,1.59,25750
2323,8.45,175051
2324,6.06,140331
2325,4.1,96541
2326,3.08,67149
2327,0.69,8134
2328,6.16,137913
2329,1.18,18982
2330,2.7,50712
2331,0.47,4624
2332,2.64,51080
2333,3.69,76815
2334,4.74,106658
2335,2.46,46303
2336,3.28,67147
2337,2.18,38901
2338,2.7,51871
2339,3.23,65465
2340,5.82,122920
2341,1.12,15291
2342,2.66,56279
2343,0.64,7288
2344,3.26,80163
2345,1.24,16623
2346,1.43,22072
2347,1.45,24572
2348,2.27,46583
2349,2.01,39919
2350,0.7,7205
2351,1.27,19878
2352,1.67,26964
2353,1.42,24650
2354,3.4,74373
2355,2.16,42960
2356,3.13,65236
2357,4.26,98175
2358,2.82,60740
2359,1.4,20343
2360,1.41,19480
2361,3.18,49630
2362,1.1,9072
2363,0.78,7593
2364,3.04,47815
2365,0.62,6779
2366,3.8,68772
2367,3.88,68763
2368,2.29,42187
2369,2.09,34969
2370,2.03,35137
2371,0.01,34
2372,4.38,90595
2373,1.62,25708
2374,0.73,7496
2375,2.81,48314
2376,1.57,21686
2377,0.74,7214
2378,2.97,50348
2379,2.38,43950
2380,0.98,11769
2381,8.28,164999
2382,2.67,50238
2383,0.97,11553
2384,9.06,178809
2385,2.06,40610
2386,1.1,11887
2387,2.11,43595
2388,0.57,6244
2389,1.97,40673
2390,0.46,4575
2391,1.1,10973
2392,1.46,21226
2393,1.92,36767
2394,1.83,34913
2395,2.26,45818
2396,2.06,43003
2397,5.13,107870
2398,2.2,45703
2399,1.31,20320
2400,1.44,22339
2401,2.25,42724
2402,2.74,57277
2403,1.19,17705
2404,1.55,25576
2405,1.42,24264
2406,2.01,31158
2407,2.02,42415
2408,5.27,108382
2409,2.1,45422
2410,1.92,34622
2411,6.21,132774
2412,2.19,45061
2413,1.92,37515
2414,5.42,119122
2415,2.18,43830
2416,4.62,104163
2417,25.25,466392
2418,0.73,8211
2419,2.03,45541
2420,1.39,23452
2421,1.39,23184
2422,1.9,40096
2423,6.11,137042
2424,7.6,167507
2425,0.7,8333
2426,3.37,79454
2427,1.42,20377
2428,1.04,11934
2429,1.81,34105
2430,2.76,60160
2431,1.04,12756
2432,1.79,32210
2433,2.42,50683
2434,1.79,35393
2435,1.26,22205
2436,1.99,36432
2437,2.44,46428
2438,1.84,37125
2439,1.56,26051
2440,4.04,84478
2441,1.66,32157
2442,2.92,63760
2443,1.68,31071
2444,2.3,43110
2445,1.0,12241
2446,1.18,16521
2447,0.56,6343
2448,0.77,7906
2449,2.1,44135
2450,3.23,72459
2451,1.67,32679
2452,0.9,9337
2453,0.55,4869
2454,0.84,8387
2455,0.42,4188
2456,1.16,12978
2457,1.74,32167
2458,1.9,35606
2459,2.21,43787
2460,2.63,54583
2461,2.04,37580
2462,1.66,26215
2463,2.56,45470
2464,1.48,23290
2465,2.35,40348
2466,1.28,17219
2467,1.14,15613
2468,1.35,18917
2469,1.89,30376
2470,1.2,13943
2471,0.61,5904
2472,1.41,12597
2473,0.03,242
2474,1.74,23900
2475,1.13,11620
2476,1.39,16745
2477,1.39,19062
2478,2.72,44562
2479,0.6,5531
2480,0.61,6341
2481,1.4,15484
2482,0.64,5630
2483,0.65,5970
2484,4.49,96582
2485,2.31,46029
2486,2.53,52837
2487,1.9,35567
2488,2.42,55129
2489,2.03,44371
2490,7.14,146578
2491,3.52,74311
2492,3.09,68096
2493,3.83,84462
2494,2.28,47278
2495,1.93,35205
2496,1.5,21994
2497,1.59,27398
2498,2.14,38080
2499,1.86,32470
2500,2.44,49519
2501,1.61,25942
2502,2.44,47012
2503,0.47,5271
2504,0.44,4264
2505,1.41,21174
2506,0.82,9032
2507,0.75,8036
2508,0.96,11745
2509,0.46,4367
2510,0.35,3738
2511,2.31,42411
2512,1.52,20968
2513,0.61,6215
2514,0.54,5560
2515,2.26,45736
2516,1.2,16018
2517,1.32,19776
2518,2.02,40337
2519,1.77,31322
2520,1.82,36782
2521,1.94,34279
2522,1.59,26804
2523,3.02,60061
2524,2.99,59958
2525,1.99,35795
2526,1.38,22953
2527,1.62,27409
2528,1.45,22380
2529,1.78,30934
2530,2.17,41023
2531,1.78,36950
2532,1.61,29860
2533,1.81,37108
2534,2.44,46232
2535,0.74,7361
2536,2.05,38779
2537,1.4,26973
2538,2.47,48214
2539,0.48,5087
2540,1.62,32762
2541,1.54,27187
2542,0.64,6499
2543,0.95,9493
2544,1.74,30227
2545,1.6,23479
2546,2.2,46302
2547,1.94,34560
2548,2.04,37255
2549,1.18,16787
2550,0.98,9585
2551,0.81,8332
2552,1.6,22015
2553,1.29,18304
2554,1.99,36126
2555,1.56,25252
2556,3.44,61284
2557,1.46,20635
2558,0.78,7101
2559,1.27,13390
2560,1.58,27779
2561,1.9,33083
2562,1.72,24137
2563,1.84,34732
2564,4.13,78316
2565,0.59,5700
2566,1.39,17216
2567,1.31,14949
2568,1.28,13477
2569,1.13,12837
2570,1.54,18590
2571,1.39,22243
2572,1.63,27860
2573,2.17,35844
2574,1.35,16823
2575,1.51,22757
2576,2.91,53088
2577,3.32,61510
2578,1.33,21511
2579,1.76,28986
2580,2.78,49788
2581,1.21,18293
2582,1.4,21812
2583,0.45,4068
2584,1.19,15960
2585,2.15,35093
2586,1.41,21330
2587,1.51,23279
2588,0.45,4420
2589,2.57,47072
2590,2.58,45705
2591,2.71,50745
2592,2.13,44282
2593,1.42,25860
2594,1.7,29373
2595,1.13,15398
2596,1.66,23587
2597,1.11,15400
2598,1.26,16007
2599,1.91,32418
2600,2.11,37207
2601,1.02,9902
2602,0.54,5050
2603,1.5,15545
2604,0.7,7217
2605,0.99,9854
2606,1.37,13385
2607,1.52,20179
2608,3.04,55828
2609,1.44,18718
2610,0.15,1306
2611,1.23,14426
2612,5.38,117753
2613,3.64,75107
2614,6.99,144519
2615,1.38,21730
2616,4.29,94697
2617,0.02,143
2618,3.09,62188
2619,1.79,33567
2620,2.29,44806
2621,1.0,13097
2622,2.88,64000
2623,1.67,26902
2624,1.47,20614
2625,4.9,112107
2626,1.88,33062
2627,1.69,26284
2628,1.53,21519
2629,0.8,8474
2630,1.48,17779
2631,1.64,32893
2632,2.46,49478
2633,2.29,45294
2634,1.5,22710
2635,1.62,28745
2636,3.31,59457
2637,3.59,71661
2638,1.79,29970
2639,2.96,58567
2640,2.87,57020
2641,2.52,52068
2642,1.58,26669
2643,2.71,51509
2644,1.45,23708
2645,2.07,41847
2646,2.84,59374
2647,0.01,64
2648,0.02,73
2649,2.17,40633
2650,1.56,20797
2651,0.01,27
2652,1.83,33234
2653,3.58,69604
2654,1.64,28374
2655,3.46,69753
2656,0.47,4777
2657,2.84,44658
2658,2.67,43585
2659,3.04,57747
2660,1.73,25660
2661,8.16,161339
2662,2.37,37165
2663,7.25,142124
2664,2.11,43783
2665,2.6,48805
2666,1.27,20297
2667,1.65,25426
2668,1.83,31921
2669,3.68,61319
2670,3.41,73912
2671,3.59,78887
2672,2.11,47004
2673,2.81,59370
2674,2.92,54135
2675,2.09,36447
2676,2.31,39583
2677,4.39,93840
2678,2.05,36417
2679,2.09,37807
2680,2.92,57850
2681,2.47,49287
2682,1.38,18415
2683,1.77,28863
2684,3.94,66361
2685,3.56,57871
2686,0.5,5082
2687,1.34,14477
2688,0.47,4763
2689,0.67,6351
2690,1.27,11364
2691,0.93,9496
2692,2.08,40281
2693,3.04,70670
2694,2.0,38489
2695,1.39,25594
2696,3.67,76219
2697,4.42,80330
2698,4.83,85106
2699,4.24,73469
2700,4.29,74587
2701,5.41,105380
2702,6.67,119806
2703,2.76,56661
2704,9.25,178294
2705,3.29,65974
2706,7.52,145227
2707,1.58,23389
2708,1.11,12711
2709,1.64,19709
2710,1.59,24534
2711,2.17,41191
2712,1.89,26739
2713,3.52,65778
2714,0.57,5598
2715,0.51,5417
2716,1.69,23026
2717,0.53,5866
2718,1.66,21912
2719,0.44,3876
2720,1.03,9883
2721,1.47,15764
2722,2.69,38659
2723,0.6,6543
2724,1.55,20112
2725,1.13,15743
2726,3.11,55006
2727,1.43,20848
2728,3.97,69059
2729,2.38,39504
2730,7.55,131350
2731,1.89,27566
2732,1.91,28047
2733,1.64,20770
2734,0.99,9357
2735,1.55,18938
2736,1.18,12344
2737,1.53,16953
2738,0.54,5126
2739,1.52,14341
2740,1.25,11448
2741,2.66,37706
2742,2.02,35346
2743,1.43,24069
2744,3.45,56151
2745,3.21,54555
2746,2.87,46946
2747,7.52,131771
2748,1.27,14806
2749,2.5,42435
2750,1.22,14483
2751,0.93,8230
2752,1.8,24844
2753,1.53,22858
2754,1.69,28241
2755,3.7,62710
2756,3.76,66882
2757,1.59,21114
2758,0.55,5589
2759,0.59,6104
2760,1.27,10485
2761,1.33,21934
2762,2.02,38151
2763,2.23,36275
2764,1.45,23714
2765,3.26,57606
2766,2.21,38849
2767,2.23,35174
2768,2.11,36942
2769,1.72,25694
2770,3.41,69662
2771,0.02,152
2772,3.33,67805
2773,3.71,76278
2774,1.45,17684
2775,1.59,23465
2776,0.53,4927
2777,1.47,19734
2778,3.21,59953
2779,0.89,8661
2780,3.85,69837
2781,3.69,71951
2782,0.02,77
2783,4.09,91759
2784,1.57,21383
2785,1.51,22606
2786,0.09,831
2787,1.46,16137
2788,1.64,21458
2789,3.87,77327
2790,0.59,6119
2791,1.57,21689
2792,0.51,4547
2793,0.91,9372
2794,0.95,9670
2795,2.62,41339
2796,1.58,26687
2797,3.71,67037
2798,1.41,20351
2799,2.82,47933
2800,2.79,48184
2801,11.38,203582
2802,1.8,25662
2803,1.66,22504
2804,1.9,23600
2805,1.99,29010
2806,5.43,92569
2807,0.97,8708
2808,2.32,36423
2809,1.74,22910
2810,2.25,36625
2811,5.62,97265
2812,1.56,19104
2813,1.48,16308
2814,1.19,13389
2815,4.91,92752
2816,1.99,32984
2817,4.83,98529
2818,1.75,22144
2819,0.62,6012
2820,1.01,9400
2821,2.92,47068
2822,0.74,7670
2823,1.54,22698
2824,2.96,58556
2825,1.39,19730
2826,2.49,40213
2827,9.65,183359
2828,0.02,66
2829,1.6,23350
2830,0.59,5680
2831,1.2,13709
2832,3.15,53151
2833,1.48,22599
2834,5.74,117615
2835,1.14,11905
2836,2.06,34586
2837,2.39,40393
2838,3.12,55292
2839,4.41,83876
2840,0.86,8235
2841,1.7,24870
2842,1.57,19440
2843,0.82,7248
2844,0.25,2237
2845,2.29,37588
2846,1.72,20989
2847,1.81,32009
2848,6.54,131438
2849,1.4,16577
2850,0.48,4012
2851,2.85,46049
2852,2.25,39264
2853,5.24,101572
2854,1.18,9636
2855,3.89,69505
2856,0.38,3385
2857,1.56,16591
2858,1.71,22672
2859,0.3,2539
2860,1.92,29253
2861,2.01,29191
2862,3.03,56257
2863,1.87,28801
2864,0.6,6376
2865,6.24,117997
2866,1.62,20309
2867,0.51,4365
2868,4.0,67122
2869,2.06,30619
2870,1.49,18083
2871,2.04,28485
2872,0.87,7817
2873,4.42,74462
2874,1.0,8156
2875,5.94,131443
2876,1.07,14743
2877,2.56,54155
2878,5.32,112105
2879,1.98,42813
2880,1.95,38714
2881,1.32,19451
2882,3.16,68028
2883,2.91,64632
2884,0.32,2805
2885,1.22,14067
2886,1.34,17054
2887,1.44,26262
2888,1.6,32452
2889,1.55,25899
2890,1.68,29151
2891,4.83,100690
2892,1.88,38335
2893,2.06,42622
2894,1.54,26476
2895,1.0,12943
2896,2.57,53746
2897,1.96,37870
2898,0.64,5819
2899,2.15,40219
2900,0.36,3583
2901,0.49,4233
2902,1.2,15507
2903,1.81,31789
2904,1.22,15047
2905,1.59,25803
2906,1.4,17123
2907,2.23,30738
2908,1.57,27354
2909,2.11,41580
2910,1.51,25406
2911,2.13,41044
2912,1.83,32330
2913,1.79,34614
2914,1.88,34973
2915,2.3,45603
2916,1.64,28356
2917,1.73,33321
2918,1.67,29333
2919,2.37,47058
2920,2.63,47690
2921,1.3,19767
2922,2.06,36703
2923,1.65,28195
2924,1.31,18637
2925,1.98,33605
2926,2.06,36305
2927,2.57,48477
2928,1.85,31527
2929,7.87,132183
2930,1.93,43105
2931,4.51,98075
2932,2.21,47563
2933,1.84,34153
2934,3.55,74519
2935,3.54,75138
2936,1.47,28318
2937,1.73,35935
2938,6.89,145902
2939,1.66,29377
2940,4.97,107677
2941,2.02,42194
2942,3.77,82054
2943,1.51,29474
2944,3.59,78486
2945,28.16,490428
2946,6.03,129553
2947,6.35,144021
2948,4.15,90525
2949,36.08,614643
2950,4.04,89647
2951,4.32,96894
2952,1.54,23206
2953,1.56,26406
2954,2.06,35419
2955,2.32,48768
2956,2.04,38765
2957,3.49,76285
2958,2.12,41257
2959,2.5,47139
2960,1.07,12467
2961,3.56,76660
2962,1.97,35447
2963,2.47,47183
2964,2.28,43020
2965,1.71,30405
2966,4.72,101543
2967,2.47,50363
2968,1.81,31814
2969,7.38,152890
2970,2.39,53215
2971,1.49,24081
2972,1.51,25076
2973,2.52,52206
2974,2.53,53776
2975,83.39,1327539
2976,5.57,119688
2977,1.87,37730
2978,1.6,29599
2979,1.0,12596
2980,2.73,58051
2981,1.77,32746
2982,2.43,45002
2983,1.89,37364
2984,0.99,14370
2985,1.79,36040
2986,6.85,148759
2987,2.36,52304
2988,2.32,51570
2989,1.4,20420
2990,2.1,47754
2991,2.69,57939
2992,1.5,21894
2993,1.31,15992
2994,4.27,91439
2995,1.34,21917
2996,4.47,101401
2997,2.22,47235
2998,2.0,36949
2999,6.8,148822
3000,2.18,44573
3001,1.91,37166
3002,1.2,19281
3003,5.0,110115
3004,2.48,52128
3005,1.77,34175
3006,4.41,97882
3007,2.34,49198
3008,4.01,88119
3009,3.52,74636
3010,23.39,426637
3011,6.57,137446
3012,5.05,109124
3013,2.08,43426
3014,4.64,105404
3015,3.78,84278
3016,24.77,450953
3017,25.54,450548
3018,5.74,127446
3019,5.71,134278
3020,6.15,139676
3021,5.92,126385
3022,0.98,12163
3023,2.87,60096
3024,1.05,13610
3025,2.78,56384
3026,3.62,79292
3027,3.93,88844
3028,2.29,48405
3029,2.69,57015
3030,1.65,31233
3031,1.53,26747
3032,1.48,23958
3033,1.34,22980
3034,0.9,9391
3035,2.84,59460
3036,1.34,21556
3037,2.28,43457
3038,3.25,67041
3039,2.49,49967
3040,6.81,150465
3041,8.4,185724
3042,5.7,128427
3043,6.82,145950
3044,3.94,82797
3045,3.75,75514
3046,3.4,73528
3047,4.02,88839
3048,9.47,196509
3049,25.49,487862
3050,3.52,78276
3051,0.02,168
3052,94.66,1474048
3053,1.5,27014
3054,29.25,536012
3055,6.21,131504
3056,10.06,200969
3057,1.08,13313
3058,3.12,68263
3059,5.8,131083
3060,5.41,121059
3061,0.01,108
3062,5.62,121769
3063,4.81,106548
3064,2.19,47573
3065,2.96,63976
3066,4.6,101827
3067,6.17,139433
3068,2.17,46226
3069,1.72,33969
3070,7.36,166757
3071,3.46,79432
3072,4.1,88621
3073,3.15,66018
3074,2.43,48967
3075,2.3,45946
3076,2.86,57816
3077,3.79,82653
3078,3.31,70602
3079,3.01,65168
3080,0.02,82
3081,8.03,186691
3082,1.75,34607
3083,2.32,48036
3084,3.04,62157
3085,2.9,58804
3086,2.74,57537
3087,2.94,60579
3088,0.02,107
3089,2.41,47244
3090,2.45,48425
3091,56.69,920118
3092,0.02,275
3093,4.22,90901
3094,2.17,42771
3095,6.76,151988
3096,7.19,155047
3097,7.18,160600
3098,26.11,484754
3099,5.01,110216
3100,22.45,410284
3101,4.78,112325
3102,4.29,100158
3103,3.48,76570
3104,77.32,1244476
3105,6.12,139070
3106,6.18,138923
3107,6.14,136138
3108,5.46,118527
3109,3.32,71829
3110,2.04,43987
3111,2.2,45017
3112,1.7,32010
3113,1.94,38209
3114,3.21,68096
3115,5.64,124724
3116,1.96,46125
3117,5.13,111519
3118,7.25,163790
3119,5.45,119683
3120,0.89,10106
3121,2.62,54586
3122,0.72,7650
3123,2.23,45051
3124,2.51,50164
3125,2.84,60567
3126,0.01,46
3127,1.47,29953
3128,3.52,74411
3129,8.92,195789
3130,4.93,111746
3131,21.66,410446
3132,3.61,78999
3133,127.4,1948303
3134,4.96,103887
3135,2.3,50296
3136,7.88,175788
3137,6.67,144734
3138,6.31,134307
3139,22.33,431522
3140,6.11,133959
3141,31.88,603046
3142,1.37,22206
3143,13.09,274969
3144,2.37,49943
3145,7.39,154955
3146,5.05,113696
3147,6.16,134214
3148,1.05,14142
3149,3.06,62259
3150,10.71,240186
3151,0.02,55
3152,5.22,121692
3153,7.35,161615
3154,3.56,77885
3155,3.88,86079
3156,5.91,131085
3157,21.44,400546
3158,11.01,240269
3159,1.05,13375
3160,3.27,66721
3161,3.69,76549
3162,3.52,72859
3163,10.67,227052
3164,5.63,133873
3165,0.85,9587
3166,1.27,17388
3167,2.27,45569
3168,1.98,44515
3169,2.8,54757
3170,3.17,62277
3171,2.64,50731
3172,2.57,48320
3173,0.38,3737
3174,0.45,4658
3175,0.67,6266
3176,0.6,5939
3177,2.49,50029
3178,2.76,58541
3179,0.01,46
3180,6.42,146806
3181,2.72,66547
3182,3.16,73865
3183,6.58,147749
3184,0.01,55
3185,1.3,22000
3186,3.12,74168
3187,2.67,59253
3188,2.02,38090
3189,0.9,9518
3190,2.43,49110
3191,4.66,100629
3192,1.81,34757
3193,1.07,14776
3194,3.06,62798
3195,1.57,22510
3196,1.41,20660
3197,1.72,28759
3198,0.97,9609
3199,0.29,2526
3200,0.53,4725
3201,1.18,14213
3202,2.27,35525
3203,3.18,69569
3204,1.77,32967
3205,2.22,43685
3206,2.84,63076
3207,3.49,72737
3208,3.71,78841
3209,1.56,26511
3210,2.22,41220
3211,2.49,52114
3212,1.81,32766
3213,3.77,67364
3214,2.84,59541
3215,1.8,30138
3216,3.54,65296
3217,2.29,45424
3218,1.79,30064
3219,3.43,60027
3220,2.22,50860
3221,1.19,19289
3222,10.77,233677
3223,3.65,74107
3224,4.43,101326
3225,4.27,95645
3226,0.02,126
3227,29.92,529832
3228,9.45,193022
3229,4.01,88535
3230,2.26,47084
3231,1.31,22208
3232,9.3,203460
3233,9.81,214463
3234,5.23,120563
3235,3.03,66920
3236,1.56,28520
3237,0.9,14906
3238,4.39,108555
3239,2.8,56903
3240,2.83,66142
3241,1.79,37558
3242,4.65,96565
3243,6.45,139720
3244,0.89,10137
3245,5.43,121378
3246,3.9,96715
3247,4.54,103233
3248,2.52,55993
3249,1.96,39647
3250,4.63,92553
3251,1.85,37248
3252,1.64,29752
3253,1.69,30764
3254,3.12,68645
3255,2.98,64089
3256,3.6,75557
3257,3.04,69438
3258,1.43,19499
3259,6.89,152440
3260,1.97,37649
3261,0.02,147
3262,1.66,27698
3263,1.97,38081
3264,4.46,97957
3265,2.02,27581
3266,3.92,71386
3267,3.42,71949
3268,3.17,61813
3269,13.41,232965
3270,4.22,100383
3271,5.77,123902
3272,4.86,109304
3273,6.69,146803
3274,2.69,59567
3275,3.15,70247
3276,3.15,71644
3277,1.91,35220
3278,5.96,130856
3279,1.73,36164
3280,3.09,69445
3281,3.92,90982
3282,4.56,102028
3283,4.06,93332
3284,2.16,41934
3285,5.73,125927
3286,4.9,106693
3287,4.26,78858
3288,2.45,49242
3289,2.99,53184
3290,9.7,185183
3291,4.94,110281
3292,1.98,36133
3293,3.84,86337
3294,2.52,49970
3295,5.14,106362
3296,4.25,94062
3297,3.24,67470
3298,3.81,84841
3299,0.57,5806
3300,1.19,14998
3301,1.13,13351
3302,1.74,30370
3303,1.64,27260
3304,2.48,47321
3305,1.43,21807
3306,0.95,12625
3307,1.23,18771
3308,3.38,70632
3309,2.64,50930
3310,1.38,18784
3311,1.87,34855
3312,3.56,74347
3313,3.13,61565
3314,3.11,68201
3315,2.69,64289
3316,1.89,38523
3317,2.81,57642
3318,1.64,35503
3319,4.02,87176
3320,2.26,43558
3321,2.96,67213
3322,0.87,7722
3323,2.18,33244
3324,3.18,58370
3325,3.73,74436
3326,1.69,30671
3327,8.19,163284
3328,2.56,44581
3329,1.89,32293
3330,2.02,32835
3331,4.6,89238
3332,6.01,129256
3333,3.3,72694
3334,2.23,45787
3335,2.82,56772
3336,2.6,55648
3337,2.17,37853
3338,5.79,125536
3339,0.88,9666
3340,3.07,64498
3341,18.13,358905
3342,10.43,218169
3343,13.24,270781
3344,0.02,99
3345,7.01,156778
3346,6.59,145682
3347,2.42,48705
3348,7.06,162814
3349,6.42,149192
3350,2.26,47407
3351,2.47,54553
3352,4.57,99586
3353,1.8,32273
3354,1.71,32049
3355,1.81,34097
3356,2.34,46211
3357,1.51,23186
3358,2.46,48562
3359,1.8,27125
3360,1.9,33433
3361,3.83,69595
3362,2.15,43751
3363,1.97,38157
3364,1.48,25600
3365,2.47,49827
3366,6.18,143031
3367,5.81,125352
3368,0.93,11018
3369,3.21,68455
3370,5.69,120423
3371,3.29,71475
3372,3.12,68283
3373,3.75,83396
3374,4.82,108688
3375,7.21,158170
3376,2.99,62661
3377,1.84,34631
3378,3.76,66929
3379,3.0,67258
3380,3.56,81182
3381,3.74,80943
3382,6.84,153820
3383,5.28,103967
3384,2.63,50883
3385,8.16,184266
3386,4.35,91583
3387,2.42,40075
3388,9.23,181732
3389,3.86,82246
3390,1.76,36874
3391,1.76,33454
3392,1.73,32756
3393,0.02,99
3394,1.72,34500
3395,1.55,27273
3396,1.86,34914
3397,2.47,49748
3398,1.67,33654
3399,1.67,31070
3400,1.51,23022
3401,2.35,46787
3402,1.55,30176
3403,2.08,38519
3404,1.11,14635
3405,1.61,20000
3406,1.74,30113
3407,1.61,22460
3408,3.21,53044
3409,2.08,38161
3410,8.82,191716
3411,4.46,100074
3412,2.34,48329
3413,2.02,40967
3414,1.79,33361
3415,1.65,30696
3416,3.09,66351
3417,3.24,72894
3418,2.19,43898
3419,5.27,117263
3420,5.43,125121
3421,4.16,92240
3422,3.88,85356
3423,4.12,90647
3424,1.08,13181
3425,2.89,60502
3426,6.44,142581
3427,3.31,74320
3428,7.89,164312
3429,4.79,108202
3430,6.53,143057
3431,5.18,104736
3432,2.0,41109
3433,6.53,148692
3434,27.41,493818
3435,9.06,194736
3436,1.75,34281
3437,6.88,166879
3438,1.3,18157
3439,2.66,59267
3440,3.02,63593
3441,3.08,67268
3442,2.07,44420
3443,4.12,92050
3444,2.98,67229
3445,2.04,41371
3446,2.78,56796
3447,3.14,67482
3448,1.83,33164
3449,3.92,71709
3450,2.86,61403
3451,0.43,4580
3452,1.7,27931
3453,2.03,42759
3454,1.52,25009
3455,3.91,89720
3456,2.13,34775
3457,2.61,50818
3458,3.85,73237
3459,5.01,100439
3460,2.28,37381
3461,1.65,22708
3462,0.01,101
3463,3.61,78044
3464,9.89,196684
3465,0.02,190
3466,0.02,138
3467,0.01,88
3468,0.01,64
3469,0.02,115
3470,0.02,145
3471,4.77,94015
3472,3.57,76312
3473,0.76,8139
3474,0.65,6723
3475,2.29,42300
3476,0.03,192
3477,2.14,41990
3478,2.64,48548
3479,1.12,13924
3480,0.57,6159
3481,1.69,30054
3482,1.42,20997
3483,2.15,41295
3484,3.36,62083
3485,2.74,52789
3486,1.51,21817
3487,3.13,64890
3488,1.72,31759
3489,2.81,58751
3490,0.01,31
3491,0.02,65
3492,1.09,14193
3493,2.92,59222
3494,2.88,60096
3495,2.46,49686
3496,1.29,19389
3497,3.39,74287
3498,0.71,7192
3499,1.26,15797
3500,2.01,33094
3501,0.43,4437
3502,1.14,15729
3503,1.67,31289
3504,2.23,43425
3505,0.55,5634
3506,1.78,29860
3507,1.71,29487
3508,3.71,78309
3509,0.36,3339
3510,0.41,4103
3511,1.24,16306
3512,2.11,41152
3513,3.5,72089
3514,0.74,8170
3515,1.59,27905
3516,1.69,27049
3517,1.1,14839
3518,3.49,71939
3519,0.75,8506
3520,0.64,6812
3521,2.08,35762
3522,0.02,107
3523,1.55,23388
3524,1.78,29303
3525,2.08,37021
3526,1.34,20468
3527,0.59,6638
3528,1.99,37766
3529,1.52,24297
3530,1.64,27460
3531,3.91,73203
3532,1.4,22874
3533,1.57,25293
3534,2.26,44437
3535,2.5,47130
3536,1.58,25270
3537,3.41,75196
3538,1.9,34499
3539,2.51,50573
3540,0.01,56
3541,0.02,76
3542,0.93,11320
3543,3.04,62743
3544,1.27,22350
3545,1.38,21400
3546,1.68,28676
3547,2.77,53075
3548,1.56,25686
3549,3.2,64561
3550,1.11,13251
3551,0.7,7399
3552,2.12,32536
3553,1.29,18034
3554,1.03,13316
3555,0.76,8466
3556,1.07,14702
3557,1.73,30603
3558,1.28,19060
3559,3.45,68916
3560,1.65,25184
3561,1.04,11493
3562,1.39,20611
3563,4.24,98027
3564,1.36,21883
3565,1.11,15593
3566,2.76,56670
3567,1.85,35083
3568,2.78,53706
3569,0.02,122
3570,0.02,91
3571,1.64,29416
3572,1.67,30015
3573,2.64,52047
3574,1.83,28136
3575,0.39,4613
3576,1.44,18329
3577,4.59,98268
3578,0.02,156
3579,0.02,134
3580,2.82,59487
3581,2.02,43374
3582,3.17,66548
3583,1.89,38556
3584,1.85,38238
3585,1.68,30689
3586,0.02,80
3587,2.02,36467
3588,2.27,45335
3589,2.03,39909
3590,1.7,29130
3591,1.52,23187
3592,2.63,52192
3593,1.65,30021
3594,2.28,43109
3595,2.28,44355
3596,4.18,78297
3597,2.84,60760
3598,6.2,137110
3599,4.19,97993
3600,1.02,12377
3601,1.38,22742
3602,1.85,34112
3603,1.0,11595
3604,2.35,45185
3605,2.8,64358
3606,2.14,42627
3607,2.07,40641
3608,2.9,68603
3609,3.79,87839
3610,0.02,84
3611,2.97,61496
3612,3.21,69477
3613,2.98,65355
3614,2.11,40726
3615,4.18,76434
3616,2.08,38760
3617,0.58,6198
3618,1.99,35190
3619,1.95,43199
3620,5.0,118658
3621,1.03,12397
3622,1.43,21679
3623,1.11,13113
3624,3.67,67845
3625,0.82,8094
3626,3.76,70221
3627,2.08,34669
3628,4.45,90566
3629,2.32,42005
3630,2.28,44703
3631,6.14,127622
3632,1.68,30893
3633,4.54,83965
3634,0.67,6832
3635,3.9,72041
3636,1.88,29363
3637,4.22,84843
3638,0.01,56
3639,2.24,39638
3640,2.02,38796
3641,5.5,114646
3642,1.59,27536
3643,0.91,8818
3644,4.16,78043
3645,1.36,19979
3646,1.46,21290
3647,0.9,9624
3648,1.09,13929
3649,1.09,13300
3650,1.43,16855
3651,1.79,34685
3652,2.64,55421
3653,1.58,26944
3654,1.97,37131
3655,1.68,29513
3656,3.1,57777
3657,6.93,148577
3658,0.02,216
3659,3.39,69213
3660,3.42,73843
3661,1.98,40356
3662,2.51,47724
3663,0.01,74
3664,2.69,52475
3665,1.52,27296
3666,1.9,34081
3667,1.51,25596
3668,1.9,38149
3669,2.17,42671
3670,4.71,82654
3671,3.18,67413
3672,5.87,127650
3673,5.1,116666
3674,1.07,15655
3675,1.3,23717
3676,2.06,37559
3677,3.46,73425
3678,2.63,55793
3679,3.52,78440
3680,3.32,74253
3681,4.67,102240
3682,1.26,19303
3683,1.7,29906
3684,3.07,66716
3685,1.28,22569
3686,4.8,113135
3687,0.74,7528
3688,1.52,23733
3689,1.17,14038
3690,3.39,56725
3691,2.21,44319
3692,2.52,53350
3693,3.49,63263
3694,1.11,12332
3695,3.29,61490
3696,3.42,76561
3697,3.41,73494
3698,9.98,196972
3699,1.64,31090
3700,2.01,35286
3701,2.21,41327
3702,4.38,77859
3703,1.56,25331
3704,1.55,23773
3705,1.4,20984
3706,0.9,9779
3707,1.58,20661
3708,1.58,31527
3709,2.4,46870
3710,2.16,42820
3711,1.89,35688
3712,3.6,66930
3713,3.0,64027
3714,1.71,31607
3715,2.11,42823
3716,1.39,22250
3717,1.81,32935
3718,1.98,36641
3719,5.05,96558
3720,2.06,36697
3721,2.03,36456
3722,3.55,76636
3723,2.98,65930
3724,4.92,107048
3725,1.57,20907
3726,1.24,15049
3727,2.08,35794
3728,1.55,20485
3729,0.9,8469
3730,1.29,11661
3731,1.02,10052
3732,2.92,51183
3733,1.42,23577
3734,3.27,56915
3735,2.63,55888
3736,2.89,60469
3737,6.97,142124
3738,1.52,23948
3739,1.93,29855
3740,2.66,53258
3741,2.01,36491
3742,3.64,64916
3743,0.51,5381
3744,1.01,11313
3745,1.75,25182
3746,1.09,11783
3747,2.77,41031
3748,2.22,36183
3749,1.8,26978
3750,5.46,94952
3751,1.49,23391
3752,2.66,48861
3753,2.88,51022
3754,8.19,142190
3755,0.94,9259
3756,1.5,17991
3757,1.41,15415
3758,0.96,9013
3759,0.49,4066
3760,0.98,9333
3761,2.01,27031
3762,1.59,21336
3763,1.64,21765
3764,2.94,50790
3765,0.56,5552
3766,0.59,6005
3767,1.68,22326
3768,3.01,52786
3769,2.71,44128
3770,7.17,128292
3771,1.95,29503
3772,1.76,25726
3773,1.29,15563
3774,0.96,8625
3775,1.8,27107
3776,1.53,24652
3777,1.91,30436
3778,3.38,74281
3779,1.85,34157
3780,3.68,67300
3781,1.15,13904
3782,1.53,25400
3783,1.19,15533
3784,3.51,60016
3785,0.8,8188
3786,4.02,73932
3787,1.1,14968
3788,5.89,120997
3789,1.88,34792
3790,3.17,58201
3791,2.83,56401
3792,3.17,60391
3793,8.91,171203
3794,0.67,6931
3795,4.36,78621
3796,1.31,17873
3797,5.57,112478
3798,1.86,33446
3799,3.73,69159
3800,2.37,48375
3801,2.85,58551
3802,8.43,167662
3803,1.83,26713
3804,1.1,12116
3805,2.99,45657
3806,3.95,78143
3807,3.42,67239
3808,11.4,198800
3809,1.32,14772
3810,1.78,28218
3811,1.56,21416
3812,7.68,132037
3813,3.74,72022
3814,1.36,14691
3815,2.78,44800
3816,5.75,101826
3817,2.27,36872
3818,1.03,9635
3819,1.99,30301
3820,5.46,95278
3821,3.63,69507
3822,2.69,55356
3823,1.21,16460
3824,12.93,255990
3825,2.29,38236
3826,6.75,144420
3827,0.83,8548
3828,3.3,62108
3829,10.85,201882
3830,2.46,44089
3831,2.15,35440
3832,4.75,85718
3833,1.53,25174
3834,5.14,103826
3835,5.39,105552
3836,6.28,117175
3837,19.94,365706
3838,0.02,135
3839,1.73,32688
3840,1.85,34970
3841,1.6,31612
3842,1.55,27634
3843,1.52,23142
3844,2.57,54891
3845,2.16,41800
3846,1.92,33019
3847,3.62,61750
3848,5.13,121269
3849,1.52,28473
3850,1.86,34928
3851,6.63,154472
3852,3.23,68447
3853,5.84,128494
3854,2.32,47262
3855,4.34,79499
3856,4.55,102280
3857,4.82,103601
3858,14.28,257271
3859,0.02,149
3860,0.01,95
3861,0.02,117
3862,3.29,67404
3863,1.74,32502
3864,2.28,42139
3865,5.14,106770
3866,7.25,164045
3867,1.88,36895
3868,6.34,137192
3869,5.47,125536
3870,1.75,32859
3871,2.35,44063
3872,2.64,55434
3873,6.06,139256
3874,1.59,29431
3875,2.01,36519
3876,2.09,38569
3877,4.14,73476
3878,2.8,60516
3879,2.99,63373
3880,3.36,69703
3881,2.07,41940
3882,3.51,63490
3883,2.33,53280
3884,3.6,83682
3885,3.73,81831
3886,8.08,176283
3887,1.62,33145
3888,4.81,109011
3889,5.19,103962
3890,3.6,68522
3891,3.28,66844
3892,7.46,147450
3893,1.8,32111
3894,2.41,46901
3895,2.29,44527
3896,4.61,82817
3897,2.32,41246
3898,1.03,12161
3899,5.88,108905
3900,1.49,20769
3901,2.34,35673
3902,3.53,69231
3903,3.2,56724
3904,9.65,166500
3905,0.84,8439
3906,1.46,16904
3907,1.49,18669
3908,1.26,12147
3909,2.43,36677
3910,1.56,27490
3911,1.44,21994
3912,3.14,53518
3913,1.61,22350
3914,3.23,56166
3915,2.73,44427
3916,8.63,154506
3917,3.19,69501
3918,2.81,61482
3919,6.6,150379
3920,6.59,144129
3921,5.16,110510
3922,19.62,343998
3923,5.38,115754
3924,3.63,80229
3925,3.77,76334
3926,14.04,253821
3927,4.54,84264
3928,2.7,53125
3929,10.26,188212
3930,13.58,240670
3931,59.31,935139
3932,16.11,289083
3933,3.63,71651
3934,9.54,157616
3935,0.02,251
3936,2.34,49900
3937,1.91,37559
3938,1.33,19566
3939,1.85,33531
3940,2.42,48006
3941,4.33,100386
3942,1.89,36110
3943,3.3,73786
3944,2.38,50465
3945,3.15,69713
3946,2.98,66612
3947,1.35,20417
3948,2.22,45296
3949,6.52,143800
3950,3.08,61027
3951,1.91,36299
3952,2.86,60766
3953,6.99,142336
3954,4.53,103794
3955,3.2,66084
3956,2.48,50376
3957,1.84,32336
3958,1.73,35070
3959,3.31,70265
3960,2.04,36757
3961,1.98,35544
3962,1.67,33655
3963,2.95,60825
3964,2.8,56207
3965,3.77,78659
3966,0.02,115
3967,0.02,134
3968,0.02,201
3969,1.95,37007
3970,1.13,13174
3971,2.07,38574
3972,1.82,32337
3973,2.42,46368
3974,2.25,40799
3975,0.51,5250
3976,0.58,5997
3977,1.36,22941
3978,1.94,33736
3979,0.87,10052
3980,1.33,22316
3981,1.27,19200
3982,2.42,49287
3983,2.47,47290
3984,2.75,54282
3985,1.68,32462
3986,1.61,30458
3987,0.01,61
3988,2.09,41114
3989,1.92,35537
3990,1.48,21061
3991,2.49,50633
3992,2.25,45757
3993,4.55,81037
3994,1.44,21688
3995,1.13,13205
3996,1.51,20171
3997,2.68,52424
3998,1.62,27694
3999,3.85,69269
4000,1.7,24647
4001,1.71,22511
4002,2.66,39972
4003,2.03,30279
4004,1.45,23213
4005,3.43,59677
4006,1.47,22148
4007,2.95,49149
4008,3.14,56776
4009,10.2,180461
4010,5.15,122700
4011,3.86,89885
4012,3.72,73780
4013,2.25,47838
4014,0.46,4910
4015,1.79,32955
4016,2.23,40786
4017,2.59,52375
4018,1.64,30041
4019,3.28,59841
4020,1.93,36498
4021,4.98,112636
4022,5.83,130285
4023,4.93,103663
4024,15.38,267671
4025,1.72,29967
4026,1.16,16752
4027,1.85,30440
4028,0.52,5547
4029,0.98,11929
4030,2.02,35924
4031,1.77,28806
4032,4.45,80478
4033,0.02,214
4034,2.96,57947
4035,1.74,30331
4036,3.01,53318
4037,1.58,22830
4038,1.29,16502
4039,2.41,36540
4040,3.42,64469
4041,2.6,46099
4042,7.39,129246
4043,1.78,41124
4044,4.25,95288
4045,4.92,107569
4046,4.85,101649
4047,12.22,226527
4048,2.38,42230
4049,2.03,36249
4050,4.31,81979
4051,1.36,16732
4052,2.5,37351
4053,3.26,64320
4054,3.09,58217
4055,7.79,140725
4056,6.01,123753
4057,2.51,50939
4058,11.79,224614
4059,4.17,77653
4060,8.93,177838
4061,10.41,184966
4062,8.26,147785
4063,40.37,686972
