index,time,conflicts
0,0.04,327
1,0.14,1120
2,0.05,518
3,0.05,480
4,0.09,648
5,0.06,586
6,0.16,1238
7,0.08,753
8,0.18,1852
9,0.12,911
10,0.26,2289
11,0.12,821
12,0.19,1451
13,0.1,820
14,0.19,1523
15,0.1,789
16,0.2,1524
17,0.11,964
18,0.18,1506
19,0.09,759
20,0.19,1541
21,0.1,741
22,0.18,1475
23,0.09,797
24,0.27,2183
25,0.31,2522
26,0.31,2081
27,0.3,2408
28,0.3,2021
29,0.3,2325
30,0.24,1951
31,0.31,2450
32,0.06,555
33,0.17,1308
34,0.05,564
35,0.06,514
36,0.1,669
37,0.07,608
38,0.14,1179
39,0.06,570
40,0.27,2205
41,0.11,785
42,0.27,2043
43,0.09,722
44,0.21,1467
45,0.09,697
46,0.21,1570
47,0.1,834
48,0.19,1678
49,0.08,645
50,0.17,1438
51,0.07,687
52,0.21,1743
53,0.09,750
54,0.17,1646
55,0.09,839
56,0.3,2589
57,0.29,2238
58,0.34,2987
59,0.3,2533
60,0.23,1992
61,0.27,2140
62,0.23,1921
63,0.23,1698
64,0.27,2387
65,0.26,2578
66,0.27,2267
67,0.28,2494
68,0.3,2912
69,0.31,3145
70,0.26,3008
71,0.27,2633
72,0.29,2473
73,0.27,2767
74,0.24,2451
75,0.32,2945
76,0.27,2198
77,0.18,1610
78,0.27,2275
79,0.27,2245
80,0.29,2079
81,0.28,2459
82,0.27,2698
83,0.34,3451
84,0.27,2646
85,0.26,2576
86,0.29,2946
87,0.25,2221
88,0.27,2502
89,0.32,3382
90,0.26,2235
91,0.2,1829
92,0.18,1680
93,0.29,2506
94,0.19,1689
95,0.27,2373
96,0.04,265
97,0.2,1517
98,0.35,3186
99,0.34,2907
100,0.19,1795
101,0.2,1692
102,0.45,3888
103,0.75,7584
104,0.2,1639
105,0.23,2022
106,0.45,3947
107,0.38,3237
108,0.05,491
109,0.2,1853
110,0.35,2978
111,0.87,8855
112,0.05,385
113,0.19,1656
114,0.34,2702
115,0.33,2896
116,0.41,3397
117,0.35,3330
118,0.03,259
119,0.14,1129
120,0.21,1801
121,0.28,2109
122,0.04,349
123,0.24,2024
124,0.34,3033
125,0.83,7784
126,0.43,3950
127,0.75,7907
128,0.04,349
129,0.03,168
130,0.28,2384
131,0.03,196
132,0.03,232
133,0.03,202
134,0.04,321
135,0.05,399
136,0.03,157
137,0.3,2456
138,0.03,259
139,0.03,218
140,0.03,192
141,0.03,240
142,0.1,998
143,0.21,1889
144,0.28,2283
145,0.62,5635
146,0.14,960
147,0.1,953
148,0.15,1051
149,0.07,610
150,0.13,972
151,0.21,1984
152,0.26,2052
153,0.64,5452
154,0.14,905
155,0.12,923
156,0.13,911
157,0.08,753
158,0.19,1931
159,0.46,3916
160,0.23,2022
161,0.38,3692
162,0.41,3450
163,1.15,11245
164,0.37,3378
165,1.18,12725
166,0.19,1604
167,0.4,3439
168,0.27,2371
169,0.55,4864
170,0.41,3635
171,1.22,12374
172,0.52,4146
173,1.22,13443
174,0.36,2966
175,0.16,1177
176,0.78,7076
177,0.37,2999
178,0.04,300
179,0.39,3224
180,0.96,7866
181,0.4,3111
182,0.74,6710
183,0.17,1354
184,1.18,10449
185,1.87,26592
186,0.62,5865
187,0.16,1445
188,0.93,8991
189,1.85,26553
190,0.49,5628
191,0.53,6499
192,0.65,8122
193,0.64,8141
194,0.9,11740
195,0.9,12205
196,0.77,8710
197,0.97,12882
198,0.54,6479
199,0.54,6704
200,0.48,5838
201,0.66,8143
202,0.45,5046
203,0.45,5156
204,0.85,12048
205,0.52,5578
206,0.5,5756
207,0.52,6113
208,0.3,3027
209,0.44,4665
210,0.69,8387
211,0.57,6712
212,0.62,6990
213,1.08,14753
214,0.55,5756
215,0.47,5272
216,0.73,7623
217,1.24,21235
218,0.8,8010
219,0.78,7502
220,1.69,28934
221,0.88,8454
222,0.52,5830
223,0.55,6076
224,0.27,2712
225,0.42,4478
226,0.76,9244
227,0.51,6487
228,0.68,7340
229,1.22,20302
230,0.26,2750
231,0.49,5308
232,0.55,6803
233,1.28,22287
234,0.84,8534
235,0.92,9285
236,1.11,13896
237,1.66,30547
238,0.27,2733
239,0.56,6451
240,0.3,2852
241,0.77,8001
242,0.57,6160
243,1.27,21004
244,1.81,32181
245,2.09,35657
246,0.4,3657
247,0.76,8134
248,1.08,12573
249,1.94,36622
250,1.64,23570
251,5.68,104970
252,1.62,21032
253,5.07,94352
254,0.25,2758
255,0.04,285
256,0.44,5244
257,0.44,5116
258,0.24,2448
259,0.26,2840
260,0.19,1941
261,0.18,1808
262,0.05,311
263,0.27,2260
264,0.24,2021
265,0.25,2702
266,0.2,2019
267,0.05,471
268,0.05,375
269,0.61,6241
270,0.71,6632
271,0.47,4138
272,0.74,7056
273,0.07,550
274,0.03,235
275,0.54,5602
276,0.61,5780
277,0.51,4495
278,0.84,7930
279,0.03,230
280,0.03,247
281,0.03,209
282,0.64,7796
283,0.63,7248
284,1.31,19357
285,1.25,18348
286,0.86,10524
287,0.76,9404
288,0.22,2309
289,0.29,3129
290,0.78,9285
291,0.69,7869
292,0.19,2130
293,0.36,3688
294,0.22,2329
295,0.43,4517
296,0.46,4067
297,0.18,1732
298,0.33,3865
299,0.41,4894
300,0.42,4784
301,0.51,6269
302,0.76,9307
303,0.9,12911
304,0.89,11544
305,0.87,11630
306,0.36,3785
307,0.51,5941
308,0.41,4675
309,0.51,5797
310,0.38,3879
311,0.28,2885
312,0.44,4496
313,0.38,3341
314,0.34,3762
315,0.28,2960
316,0.49,5552
317,0.49,5872
318,0.35,3389
319,0.46,4290
320,0.37,3439
321,0.42,4414
322,0.43,4257
323,0.52,5469
324,0.37,3738
325,0.54,5677
326,0.46,3782
327,0.4,3634
328,0.6,6301
329,0.6,6285
330,0.8,9822
331,0.94,12643
332,0.36,4103
333,0.41,4636
334,0.49,5686
335,0.64,7489
336,0.44,4469
337,0.48,5339
338,0.92,13142
339,0.91,12259
340,0.41,4766
341,0.39,4447
342,0.98,13145
343,0.95,13346
344,4.93,98673
345,4.11,85969
346,1.13,17254
347,0.75,8720
348,0.53,6440
349,0.45,4829
350,0.37,3585
351,0.31,3223
352,0.7,8215
353,0.62,6934
354,1.18,17034
355,0.7,7499
356,0.51,6164
357,0.42,4481
358,1.15,17201
359,5.86,102601
360,0.41,4654
361,1.1,16636
362,1.15,19100
363,1.26,20974
364,0.75,9208
365,1.3,21226
366,0.76,9202
367,1.24,19988
368,0.59,7080
369,1.01,14437
370,0.26,2252
371,0.61,5857
372,1.86,32851
373,1.62,24388
374,0.26,2404
375,0.65,6528
376,2.16,37534
377,1.71,27219
378,0.29,3244
379,1.01,12955
380,1.14,14980
381,1.5,21417
382,1.44,21976
383,1.38,21726
384,0.76,7931
385,1.29,16976
386,1.13,15353
387,1.18,13972
388,0.6,6310
389,1.17,13212
390,1.7,27353
391,2.16,37557
392,1.89,27944
393,1.86,28807
394,0.95,12647
395,0.97,14699
396,0.9,13641
397,1.15,18382
398,1.25,20644
399,1.16,19289
400,1.53,30540
401,1.35,24846
402,0.03,296
403,1.41,25927
404,1.5,26595
405,1.53,30807
406,1.59,30281
407,1.42,25345
408,1.52,26367
409,1.85,38136
410,1.98,39564
411,0.03,240
412,1.19,18611
413,1.49,26359
414,1.34,23097
415,1.18,17956
416,1.49,24542
417,1.55,23297
418,1.93,34256
419,1.73,28159
420,1.45,23086
421,1.16,15508
422,0.58,6326
423,1.22,16192
424,5.11,100674
425,1.46,23667
426,1.53,24979
427,1.05,13938
428,0.73,8877
429,1.37,22188
430,2.84,57797
431,1.67,30493
432,0.36,4249
433,0.47,5564
434,0.98,12289
435,10.32,194120
436,1.38,17673
437,2.53,46648
438,1.55,25997
439,3.98,74112
440,0.01,85
441,2.52,40460
442,4.18,81131
443,7.74,150631
444,1.87,38743
445,3.93,82296
446,12.83,252713
447,16.12,310274
448,3.3,70178
449,3.71,81765
450,1.62,32042
451,1.43,25224
452,3.22,67548
453,3.5,77190
454,1.52,28561
455,1.54,25829
456,1.13,15246
457,1.03,13841
458,2.09,40740
459,2.56,54712
460,2.15,46695
461,3.21,68928
462,1.61,32158
463,1.44,24025
464,0.91,11550
465,0.96,9626
466,2.26,47063
467,2.03,37619
468,1.69,30209
469,1.51,25222
470,1.85,36785
471,2.09,41617
472,0.72,7556
473,2.23,43926
474,1.07,9847
475,2.83,56356
476,0.1,997
477,0.13,1221
478,0.09,843
479,0.12,1164
480,0.13,1382
481,0.14,1302
482,0.16,1621
483,0.15,1813
484,0.13,1332
485,0.1,839
486,0.11,1200
487,0.12,1303
488,0.11,1181
489,0.13,1211
490,0.17,1711
491,0.16,1553
492,0.22,1926
493,0.41,3896
494,0.21,2012
495,0.41,4007
496,0.23,2099
497,0.38,3920
498,0.29,3076
499,0.65,7182
500,0.23,2022
501,0.49,4114
502,0.28,2192
503,0.4,3739
504,0.18,1798
505,0.29,2981
506,0.46,4846
507,0.32,3534
508,0.3,3541
509,0.26,3059
510,0.26,3184
511,0.39,5139
512,0.23,2519
513,0.32,3847
514,0.32,3891
515,0.43,5522
516,0.45,5611
517,0.45,6171
518,0.49,6566
519,0.35,3937
520,0.4,4747
521,0.4,4551
522,0.42,4826
523,0.38,3986
524,0.27,2398
525,0.28,2752
526,0.25,2376
527,0.27,2867
528,0.32,3194
529,0.3,3022
530,0.3,3379
531,0.39,3990
532,0.55,5969
533,0.71,7858
534,0.52,5715
535,0.35,3653
536,0.27,2725
537,0.29,3103
538,0.49,6093
539,0.74,8367
540,0.13,1422
541,0.11,1138
542,0.18,1846
543,0.2,2064
544,0.13,1446
545,0.13,1254
546,0.18,1896
547,0.23,2122
548,0.15,1597
549,0.28,2968
550,0.16,1608
551,0.29,2801
552,0.5,5280
553,0.49,5504
554,0.23,2066
555,0.39,4501
556,0.29,2236
557,0.32,3095
558,0.29,2427
559,0.32,3027
560,0.39,4018
561,0.47,5789
562,0.39,4073
563,0.51,5414
564,0.29,3028
565,0.32,3470
566,0.5,5461
567,0.51,5655
568,0.75,8896
569,0.54,6911
570,0.64,7595
571,0.73,8407
572,0.15,1428
573,0.44,3577
574,0.18,1708
575,0.5,5017
576,0.16,1378
577,0.42,3580
578,0.18,1666
579,0.5,4053
580,0.18,1807
581,0.55,4677
582,1.43,15215
583,1.36,18626
584,0.16,1745
585,0.45,3968
586,1.31,13816
587,1.47,18673
588,1.39,16205
589,1.35,17629
590,1.21,12743
591,1.36,19264
592,0.55,4994
593,0.53,5432
594,0.52,5008
595,0.51,4757
596,1.22,11089
597,1.21,14490
598,1.24,10708
599,1.21,13295
600,1.18,15962
601,1.21,14089
602,1.26,18909
603,2.01,39825
604,0.25,2024
605,0.39,3103
606,0.55,4754
607,1.2,12966
608,0.22,1986
609,0.48,4070
610,0.56,5390
611,0.92,9659
612,0.2,1921
613,0.44,3662
614,0.5,4593
615,1.25,13497
616,0.27,2511
617,0.5,4497
618,0.57,5482
619,1.17,14083
620,0.3,3049
621,0.36,3854
622,0.41,4234
623,0.28,2862
624,0.37,3236
625,0.33,2690
626,0.75,8082
627,0.76,8035
628,0.31,3073
629,0.26,2415
630,0.5,6522
631,1.01,13881
632,1.12,12848
633,0.99,9864
634,1.79,35101
635,1.44,18196
636,0.5,4347
637,0.48,4317
638,1.4,17921
639,1.5,23215
640,0.46,3725
641,0.56,4913
642,1.26,12920
643,1.35,18914
644,0.44,3868
645,0.45,3780
646,1.05,11267
647,0.77,8057
648,0.42,4247
649,1.06,12079
650,2.35,44848
651,1.86,31893
652,0.33,2647
653,1.21,10033
654,0.32,2789
655,1.07,9110
656,1.69,23708
657,2.62,45197
658,0.96,8336
659,2.3,37939
660,1.47,16493
661,3.22,53908
662,1.3,12312
663,3.35,57850
664,2.11,33767
665,2.14,33480
666,8.77,162490
667,7.7,140207
668,1.1,18719
669,1.31,24604
670,0.91,14203
671,0.53,6395
672,0.78,9990
673,0.91,12477
674,1.02,19577
675,1.09,19508
676,1.02,17105
677,0.81,9282
678,1.21,19342
679,1.17,19194
680,1.69,33693
681,1.41,27458
682,0.52,6249
683,1.04,14921
684,1.02,19032
685,1.33,22824
686,1.14,18153
687,1.86,35727
688,0.62,7594
689,0.54,5898
690,0.52,5590
691,0.76,7680
692,1.21,20685
693,1.37,22305
694,0.02,119
695,2.37,48234
696,1.0,14335
697,1.99,39740
698,2.67,59218
699,6.01,130436
700,0.71,8570
701,0.62,6782
702,0.55,6741
703,0.84,8401
704,0.66,7509
705,1.04,10090
706,1.18,13820
707,1.72,23214
708,0.92,13371
709,1.15,17829
710,1.02,17895
711,1.88,34913
712,1.2,21554
713,2.16,44227
714,2.08,40509
715,4.45,86125
716,1.46,25861
717,1.26,19413
718,1.56,26134
719,2.29,47445
720,1.54,28709
721,2.45,48961
722,2.87,62195
723,5.34,102320
724,0.02,99
725,3.11,74462
726,2.23,42937
727,5.91,123606
728,2.6,55641
729,6.45,135900
730,6.39,126119
731,19.12,340804
732,0.02,49
733,0.02,116
734,0.31,3260
735,0.08,613
736,0.07,551
737,0.49,5303
738,0.16,1636
739,0.23,2347
740,0.17,1540
741,0.19,1743
742,1.99,34255
743,3.18,59626
744,0.79,8313
745,2.22,41978
746,1.77,30632
747,1.78,31194
748,1.61,28017
749,1.95,33010
750,1.92,34653
751,1.71,28024
752,1.65,26606
753,1.74,29834
754,1.81,31576
755,1.72,26098
756,1.11,10502
757,2.76,47998
758,0.01,49
759,0.01,41
760,0.03,233
761,0.04,213
762,0.89,9744
763,1.01,11401
764,0.03,230
765,0.04,345
766,0.78,8433
767,0.92,10003
768,7.9,157939
769,6.99,138801
770,6.96,142857
771,7.76,155098
772,6.04,120714
773,5.57,113419
774,5.07,100664
775,5.77,110864
776,0.03,201
777,0.01,28
778,0.02,238
779,0.5,4931
780,0.46,3987
781,1.39,19572
782,1.76,28498
783,1.2,15158
784,0.95,9515
785,0.67,6657
786,1.22,13541
787,1.15,16530
788,1.08,17765
789,0.85,9371
790,1.15,15925
791,0.63,7310
792,0.72,7536
793,1.24,16874
794,1.31,18532
795,1.46,24485
796,1.1,14345
797,0.48,5230
798,1.2,16457
799,1.53,26458
800,1.86,36784
801,8.81,163316
802,6.62,127966
803,1.65,33133
804,2.01,40830
805,2.74,55652
806,2.75,55430
807,3.29,63401
808,3.11,59477
809,2.6,48606
810,2.06,37590
811,1.35,22148
812,1.74,33675
813,1.96,40115
814,2.24,45236
815,1.97,37305
816,1.93,39053
817,2.29,43038
818,2.59,50499
819,4.55,93279
820,3.16,64183
821,3.62,67391
822,5.67,108494
823,4.98,104370
824,15.16,291125
825,6.72,139236
826,13.36,265856
827,5.26,101627
828,21.94,413851
829,7.39,160429
830,3.92,87507
831,6.26,140768
832,4.01,87215
833,3.66,80214
834,4.73,103535
835,0.01,89
836,5.51,121213
837,8.87,182136
838,1.38,19932
839,4.26,85993
840,3.14,63252
841,3.14,62080
842,5.6,126610
843,2.81,64208
844,5.95,128645
845,2.96,68945
846,3.01,67233
847,3.87,87534
848,3.64,85145
849,4.71,107845
850,1.3,20757
851,8.6,179032
852,2.08,36858
853,4.06,84182
854,6.3,129059
855,3.22,63490
856,1.29,19875
857,34.19,599872
858,5.92,129422
859,4.37,97507
860,5.62,109307
861,31.43,577707
862,6.68,150444
863,4.79,104444
864,4.05,88067
865,4.58,100178
866,3.05,68934
867,5.83,124235
868,14.62,284614
869,15.67,307688
870,2.84,50002
871,2.59,43926
872,3.45,65968
873,6.97,143501
874,0.33,3054
875,0.51,5649
876,0.57,6239
877,1.3,21934
878,7.38,152026
879,4.36,80935
880,8.72,169745
881,20.95,393955
882,0.54,5621
883,3.36,69031
884,1.1,14433
885,5.62,110576
886,1.6,25299
887,7.84,156069
888,1.39,19458
889,9.12,184280
890,13.9,261734
891,56.86,967816
892,55.1,953766
893,41.5,776514
894,36.0,705428
895,70.26,1206383
896,40.04,714495
897,23.93,478309
898,0.1,964
899,0.09,861
900,0.25,2419
901,0.25,2670
902,0.32,3607
903,0.27,2893
904,0.65,7230
905,0.91,12113
906,0.21,2094
907,0.25,2515
908,0.44,4837
909,1.22,20899
910,0.5,6111
911,0.42,4909
912,1.26,20231
913,1.29,21675
914,0.06,546
915,0.48,5345
916,0.52,5859
917,0.75,9457
918,0.09,871
919,0.47,4986
920,0.08,739
921,0.74,8126
922,0.24,2032
923,0.28,3097
924,0.44,5150
925,0.55,5986
926,0.43,3967
927,0.27,2573
928,0.24,2109
929,0.35,3641
930,0.6,7134
931,0.67,7955
932,1.21,19466
933,1.27,20211
934,0.4,3977
935,0.69,8236
936,0.57,6685
937,0.71,8649
938,0.57,6858
939,1.28,20265
940,3.95,85552
941,4.38,100601
942,0.9,13806
943,1.0,13485
944,1.11,18567
945,1.62,30601
946,0.37,3454
947,0.59,7201
948,0.59,6402
949,0.86,11449
950,1.11,16301
951,1.15,19087
952,1.59,30622
953,1.79,39690
954,1.16,17216
955,0.79,8636
956,1.12,16048
957,1.18,20166
958,0.75,8201
959,1.24,17505
960,1.78,35190
961,1.15,14669
962,0.23,2582
963,0.46,5818
964,0.07,728
965,0.9,10419
966,0.08,710
967,0.51,5716
968,0.08,778
969,0.77,8659
970,1.05,10454
971,0.94,11009
972,0.55,5980
973,0.99,14439
974,1.73,31336
975,1.82,34840
976,2.09,42200
977,1.8,35165
978,0.1,566
979,0.31,2801
980,0.07,693
981,0.09,730
982,0.47,4946
983,1.01,12208
984,0.52,5383
985,0.54,5347
986,0.52,5036
987,0.92,10091
988,0.48,4720
989,0.58,6164
990,1.44,27465
991,1.88,38470
992,1.52,24430
993,2.35,47257
994,0.07,651
995,0.49,4882
996,0.32,3457
997,1.05,13379
998,0.06,583
999,0.55,5276
1000,0.39,3357
1001,0.5,4208
1002,0.1,949
1003,0.56,4734
1004,0.69,7191
1005,1.47,20281
1006,0.09,880
1007,0.58,5696
1008,0.07,593
1009,0.62,5996
1010,0.64,6516
1011,1.27,15920
1012,1.39,21175
1013,1.65,27115
1014,1.38,21266
1015,1.49,26400
1016,1.29,18910
1017,1.43,21931
1018,1.19,18785
1019,1.32,18362
1020,1.62,28552
1021,1.21,17156
1022,1.88,28148
1023,1.2,12798
1024,2.11,34653
1025,4.59,87366
1026,0.63,7558
1027,0.64,7766
1028,1.2,19709
1029,1.28,19704
1030,0.8,9957
1031,1.59,32231
1032,3.61,79395
1033,3.81,85424
1034,0.6,6888
1035,0.68,8057
1036,0.71,8253
1037,0.76,8765
1038,0.69,7663
1039,1.51,29557
1040,1.74,32358
1041,2.49,53972
1042,0.28,3064
1043,0.4,4185
1044,0.69,7247
1045,0.63,7450
1046,1.24,19171
1047,1.37,23700
1048,2.06,43091
1049,2.22,47364
1050,1.05,14340
1051,1.15,17004
1052,1.21,15650
1053,1.36,18700
1054,1.3,19206
1055,0.66,6545
1056,2.87,62760
1057,1.95,38680
1058,1.45,28726
1059,1.34,26977
1060,2.53,53562
1061,2.19,47587
1062,2.05,44060
1063,1.77,31573
1064,5.34,119400
1065,5.16,113935
1066,2.92,56089
1067,2.83,51912
1068,13.62,271292
1069,11.63,242193
1070,0.01,57
1071,0.01,32
1072,14.96,303190
1073,0.01,54
1074,8.93,198994
1075,8.07,168583
1076,8.34,173337
1077,9.97,202885
1078,5.4,119611
1079,3.56,81446
1080,6.98,162451
1081,4.98,114906
1082,4.3,96172
1083,3.79,90590
1084,3.34,71582
1085,7.66,166000
1086,0.85,9613
1087,0.88,9347
1088,0.46,4821
1089,0.51,5955
1090,0.74,8295
1091,0.52,5986
1092,0.49,5031
1093,0.62,6369
1094,0.96,14223
1095,1.6,28581
1096,1.6,36016
1097,1.53,25614
1098,1.4,23871
1099,1.5,24818
1100,2.38,49761
1101,1.96,39563
1102,0.59,6103
1103,1.22,16965
1104,1.1,16454
1105,1.22,19720
1106,0.56,5905
1107,1.42,20795
1108,3.27,70971
1109,2.59,53307
1110,1.52,20689
1111,0.91,8453
1112,0.79,8121
1113,0.56,5733
1114,1.5,22868
1115,1.76,28075
1116,5.31,109728
1117,4.25,79669
1118,1.72,33061
1119,1.47,27152
1120,2.43,50819
1121,2.3,50339
1122,1.71,33545
1123,1.36,20632
1124,2.94,63689
1125,1.95,39158
1126,1.33,18358
1127,1.84,34460
1128,1.53,20068
1129,2.64,47374
1130,2.08,40176
1131,3.33,66342
1132,5.38,112464
1133,3.63,74932
1134,2.92,70003
1135,8.22,184221
1136,9.58,203816
1137,5.3,121028
1138,3.95,82059
1139,9.77,194873
1140,6.59,148053
1141,22.45,432616
1142,0.01,56
1143,9.69,202634
1144,10.48,224357
1145,10.77,225276
1146,0.01,40
1147,18.48,374309
1148,7.39,144309
1149,14.7,301146
1150,0.93,14068
1151,0.94,14617
1152,1.54,29378
1153,1.47,29590
1154,0.61,7974
1155,0.65,8640
1156,0.53,6420
1157,0.96,14623
1158,0.49,6417
1159,0.59,7533
1160,0.73,8985
1161,1.05,17834
1162,1.52,28913
1163,1.67,31690
1164,1.51,26547
1165,1.9,41276
1166,0.75,7896
1167,0.82,9198
1168,0.51,5716
1169,0.78,8571
1170,0.44,4634
1171,1.14,14119
1172,0.47,4530
1173,0.48,4481
1174,0.32,3272
1175,0.5,5081
1176,1.28,20231
1177,1.21,20305
1178,0.37,3248
1179,0.73,7651
1180,1.39,19713
1181,1.92,37492
1182,0.07,705
1183,0.55,5599
1184,0.37,3626
1185,1.08,13659
1186,0.08,673
1187,0.54,5219
1188,0.37,3317
1189,0.53,4860
1190,0.27,2450
1191,0.79,8288
1192,0.28,2877
1193,0.56,5707
1194,1.58,24402
1195,1.87,35239
1196,2.02,41342
1197,2.15,43870
1198,0.1,960
1199,0.55,4976
1200,0.71,7550
1201,1.32,16118
1202,0.08,724
1203,0.65,6388
1204,0.07,624
1205,0.56,5107
1206,1.18,17344
1207,1.38,20685
1208,2.08,39779
1209,2.3,42380
1210,1.03,9355
1211,1.81,27607
1212,2.19,34749
1213,4.38,82501
1214,0.28,2760
1215,0.5,5646
1216,0.7,8069
1217,0.76,9282
1218,1.24,20474
1219,1.35,24841
1220,1.9,40862
1221,2.63,60452
1222,1.1,17200
1223,1.24,18808
1224,1.3,18508
1225,1.31,18658
1226,1.46,21473
1227,1.79,31531
1228,1.1,15013
1229,3.28,68833
1230,0.43,4311
1231,0.75,7695
1232,0.34,3662
1233,0.58,5885
1234,1.16,17576
1235,1.31,19539
1236,1.95,39720
1237,2.74,52609
1238,1.28,13140
1239,1.24,10133
1240,1.49,21330
1241,0.75,7059
1242,5.11,103996
1243,3.55,68567
1244,2.25,36909
1245,2.3,44892
1246,1.9,37327
1247,1.52,25257
1248,1.9,32271
1249,2.02,37093
1250,2.08,39330
1251,2.08,38323
1252,2.36,43186
1253,1.6,25840
1254,2.68,56591
1255,3.14,72251
1256,2.29,46681
1257,2.91,65900
1258,3.7,80463
1259,5.05,106764
1260,3.11,63465
1261,3.6,69784
1262,0.01,26
1263,11.29,233896
1264,8.86,177727
1265,10.63,224090
1266,0.02,100
1267,11.63,238081
1268,12.13,264364
1269,11.53,250994
1270,0.01,35
1271,9.15,215836
1272,13.28,284265
1273,9.41,189125
1274,8.67,171684
1275,8.03,159764
1276,23.28,444119
1277,0.07,652
1278,0.43,4382
1279,0.38,3929
1280,1.09,13872
1281,0.43,4094
1282,0.46,4342
1283,0.39,3600
1284,0.49,4680
1285,0.79,7425
1286,1.35,16838
1287,1.41,21038
1288,1.56,26021
1289,1.35,19904
1290,1.82,34943
1291,1.55,26552
1292,1.69,30700
1293,0.11,799
1294,0.46,3845
1295,0.91,9219
1296,1.45,18442
1297,0.61,5692
1298,0.48,4224
1299,0.1,922
1300,0.61,5971
1301,1.14,17470
1302,1.47,23804
1303,2.04,40796
1304,2.66,53358
1305,1.88,28514
1306,1.1,12062
1307,1.85,32943
1308,4.67,86632
1309,1.47,24877
1310,2.57,51285
1311,1.92,39434
1312,3.15,61729
1313,3.39,73727
1314,2.72,59371
1315,1.99,38080
1316,3.32,73388
1317,1.86,33459
1318,1.48,23518
1319,2.82,53091
1320,1.53,23102
1321,3.06,65525
1322,2.58,53518
1323,5.45,114567
1324,4.19,80734
1325,0.66,6444
1326,1.45,22989
1327,2.01,38086
1328,3.77,81784
1329,1.83,28233
1330,1.16,13511
1331,5.87,119568
1332,2.98,59570
1333,7.83,175827
1334,9.07,201673
1335,4.55,94413
1336,14.67,317279
1337,3.28,63026
1338,8.18,167405
1339,13.34,275500
1340,16.63,326088
1341,0.97,12193
1342,1.04,12037
1343,1.6,27418
1344,1.43,24079
1345,1.21,15842
1346,1.19,14195
1347,1.34,17724
1348,2.6,49460
1349,2.32,39844
1350,2.69,49393
1351,3.26,69084
1352,6.52,140951
1353,1.15,17180
1354,1.83,30349
1355,2.09,37441
1356,3.15,64104
1357,1.68,26231
1358,2.31,41537
1359,0.68,6830
1360,5.1,95287
1361,1.82,28247
1362,1.79,29007
1363,1.3,16614
1364,1.89,26722
1365,2.55,45224
1366,5.28,105991
1367,8.36,160532
1368,14.27,266851
1369,1.78,26466
1370,2.79,49144
1371,8.8,169940
1372,7.36,136362
1373,2.72,51275
1374,4.22,82586
1375,7.96,169220
1376,9.94,213301
1377,3.94,79507
1378,13.97,281350
1379,14.49,287834
1380,15.38,298092
1381,5.81,113956
1382,11.04,200488
1383,3.13,59907
1384,10.16,182394
1385,15.56,295299
1386,11.81,223142
1387,38.4,639099
1388,34.36,597557
1389,1.92,31968
1390,1.16,12473
1391,3.04,52401
1392,8.75,166997
1393,3.14,54095
1394,15.53,262703
1395,7.99,147689
1396,9.68,169432
1397,2.75,48451
1398,6.75,122595
1399,19.08,351904
1400,10.07,184440
1401,2.16,35889
1402,9.19,180783
1403,5.62,106404
1404,29.99,506491
1405,0.35,4070
1406,0.53,6393
1407,0.37,4349
1408,0.42,5079
1409,0.65,8208
1410,0.71,9308
1411,1.02,17082
1412,1.23,20693
1413,0.26,2022
1414,0.3,3292
1415,0.2,2128
1416,0.17,1938
1417,0.71,8383
1418,0.92,13886
1419,0.22,2106
1420,0.79,8831
1421,1.99,39355
1422,3.13,64894
1423,2.25,44545
1424,2.34,46830
1425,1.25,19897
1426,1.13,16204
1427,1.24,17691
1428,1.33,21247
1429,1.1,15532
1430,1.11,16553
1431,1.22,17727
1432,1.22,18133
1433,0.39,4527
1434,0.42,5118
1435,0.84,9700
1436,0.85,9212
1437,0.39,4684
1438,0.38,4468
1439,0.69,6885
1440,0.59,7152
1441,0.14,1697
1442,0.27,2818
1443,0.21,2244
1444,0.4,3973
1445,1.2,18877
1446,1.32,22364
1447,0.72,8655
1448,0.49,5993
1449,0.8,9281
1450,1.14,18156
1451,0.47,5230
1452,0.72,7313
1453,0.1,963
1454,0.32,3130
1455,0.24,2499
1456,0.2,1983
1457,0.14,1410
1458,0.12,1297
1459,0.38,4206
1460,0.23,2111
1461,0.43,4796
1462,0.77,8882
1463,0.49,5399
1464,0.4,4108
1465,0.55,5847
1466,0.92,10749
1467,0.39,3444
1468,1.19,14844
1469,0.62,7300
1470,0.49,5681
1471,0.59,6663
1472,0.56,6895
1473,0.44,5569
1474,0.49,5923
1475,0.4,4918
1476,0.52,6631
1477,1.11,18265
1478,1.11,16789
1479,1.24,19236
1480,1.17,18083
1481,0.69,7352
1482,0.89,11890
1483,0.59,7049
1484,0.96,12358
1485,0.51,5921
1486,0.56,6229
1487,0.25,2733
1488,0.41,4458
1489,0.26,2528
1490,0.51,4883
1491,1.11,17166
1492,1.02,14216
1493,0.49,4933
1494,0.64,7141
1495,0.48,4743
1496,0.61,6274
1497,0.52,5090
1498,0.51,4660
1499,0.3,3265
1500,1.44,19878
1501,0.45,5059
1502,0.72,8646
1503,0.44,4270
1504,1.09,12347
1505,0.44,4504
1506,0.92,11691
1507,1.52,18180
1508,1.52,22069
1509,0.51,5450
1510,0.87,10014
1511,0.42,4434
1512,1.27,19601
1513,0.47,4887
1514,0.83,9127
1515,1.59,19053
1516,1.58,22894
1517,0.4,4204
1518,0.44,5029
1519,0.17,1849
1520,0.5,4806
1521,0.62,6091
1522,0.27,2511
1523,1.18,9346
1524,0.55,4042
1525,0.43,5328
1526,0.72,7312
1527,0.53,5505
1528,1.4,17665
1529,0.55,5193
1530,1.16,13671
1531,2.35,37806
1532,1.72,20077
1533,0.69,8382
1534,0.97,10059
1535,1.16,16228
1536,1.25,18626
1537,0.82,8989
1538,0.58,6306
1539,1.23,17114
1540,1.18,17166
1541,1.18,18998
1542,0.66,6945
1543,1.28,19413
1544,0.68,7731
1545,1.13,16381
1546,4.5,96157
1547,1.24,21257
1548,0.67,7397
1549,1.64,31367
1550,3.97,86371
1551,1.0,15630
1552,3.85,86544
1553,1.43,22886
1554,7.08,150412
1555,5.15,114136
1556,31.6,557088
1557,1.21,17559
1558,0.8,9201
1559,0.68,7749
1560,1.28,20675
1561,1.56,29509
1562,2.29,50120
1563,7.13,157227
1564,4.13,93621
1565,0.65,7335
1566,1.17,18027
1567,0.78,8882
1568,0.51,5503
1569,1.19,15904
1570,1.47,24015
1571,1.36,20748
1572,1.39,21316
1573,0.78,9202
1574,0.49,4962
1575,0.59,6721
1576,0.63,6474
1577,0.98,12816
1578,1.12,12557
1579,1.51,24834
1580,1.67,27458
1581,1.68,33131
1582,1.15,18255
1583,1.35,21546
1584,1.39,20540
1585,6.87,144469
1586,3.92,84691
1587,6.45,137210
1588,4.99,105858
1589,2.41,52037
1590,2.25,43980
1591,1.26,20824
1592,3.88,84539
1593,1.64,26400
1594,2.76,54136
1595,3.46,73382
1596,5.3,112614
1597,0.77,8434
1598,1.0,12310
1599,0.54,6235
1600,1.18,18808
1601,1.1,21702
1602,1.48,28292
1603,0.32,3225
1604,3.54,82201
1605,1.58,30963
1606,4.39,92951
1607,1.5,29351
1608,1.3,23179
1609,0.01,55
1610,2.34,49836
1611,2.1,42584
1612,1.56,30547
1613,0.98,12924
1614,1.06,17803
1615,0.85,11288
1616,1.08,18720
1617,1.12,16052
1618,1.19,18999
1619,1.66,26643
1620,0.98,9703
1621,0.63,6835
1622,1.8,35097
1623,3.96,87606
1624,0.02,89
1625,2.21,43584
1626,2.96,63100
1627,1.52,30355
1628,1.26,18539
1629,1.29,20713
1630,1.15,18799
1631,0.49,5039
1632,1.55,25749
1633,1.15,16021
1634,1.57,23037
1635,1.14,13728
1636,1.26,15479
1637,2.16,38782
1638,2.14,36323
1639,0.53,5469
1640,1.64,24023
1641,1.69,24811
1642,3.22,59218
1643,1.49,21203
1644,1.36,20919
1645,2.1,42334
1646,3.59,77077
1647,0.02,80
1648,2.55,49315
1649,3.21,69983
1650,1.63,21732
1651,1.66,22213
1652,2.2,41933
1653,4.03,76955
1654,2.31,35725
1655,8.26,155434
1656,2.73,44285
1657,7.01,142662
1658,1.18,16525
1659,1.21,18370
1660,0.38,4466
1661,0.77,8815
1662,1.14,16993
1663,1.17,17093
1664,0.7,7954
1665,0.68,8095
1666,0.65,7400
1667,0.64,7234
1668,0.87,9235
1669,0.81,9140
1670,0.4,3901
1671,1.17,14580
1672,0.46,4667
1673,1.14,14094
1674,0.01,40
1675,0.6,6975
1676,0.85,10536
1677,1.17,15960
1678,1.32,18880
1679,0.51,5554
1680,0.87,9348
1681,1.49,19303
1682,1.33,16167
1683,0.64,7422
1684,0.68,8061
1685,0.24,2409
1686,0.44,4736
1687,0.47,4846
1688,0.47,4852
1689,0.6,5844
1690,0.58,5451
1691,0.41,4389
1692,0.47,4781
1693,0.6,5992
1694,0.59,5870
1695,0.6,6033
1696,0.6,5831
1697,1.22,10480
1698,1.41,12984
1699,0.69,8141
1700,0.41,4907
1701,0.42,4571
1702,0.8,8984
1703,0.43,5088
1704,1.03,11894
1705,1.46,20577
1706,1.58,21732
1707,0.69,8326
1708,0.44,4632
1709,1.5,21384
1710,1.52,21785
1711,0.63,6568
1712,1.07,12946
1713,2.88,44705
1714,3.03,47269
1715,1.11,16545
1716,1.21,18557
1717,0.69,7583
1718,1.05,15605
1719,0.78,8960
1720,1.1,15287
1721,0.49,5253
1722,1.31,18085
1723,1.1,14718
1724,1.44,21570
1725,1.27,15835
1726,1.75,26424
1727,0.02,72
1728,1.62,26148
1729,2.32,42219
1730,0.74,8823
1731,1.01,15190
1732,0.51,5701
1733,1.25,18637
1734,0.49,5529
1735,1.21,19742
1736,0.52,5066
1737,1.64,27370
1738,0.96,10080
1739,1.14,12737
1740,1.19,13536
1741,1.77,24635
1742,0.01,27
1743,1.9,33247
1744,3.63,63544
1745,4.12,90631
1746,1.81,31887
1747,1.75,34362
1748,1.36,21967
1749,2.2,42018
1750,2.34,44303
1751,2.6,52888
1752,10.2,220969
1753,1.4,22303
1754,1.01,13037
1755,1.28,22015
1756,2.51,44702
1757,2.06,42851
1758,2.13,41610
1759,2.1,38619
1760,6.41,142114
1761,1.48,25600
1762,0.94,11706
1763,2.29,39202
1764,2.26,38183
1765,2.71,59015
1766,2.31,45313
1767,6.07,131832
1768,6.61,137334
1769,0.87,8939
1770,1.05,12109
1771,4.08,67561
1772,4.19,68595
1773,2.33,46168
1774,4.42,82907
1775,3.13,54415
1776,10.82,209002
1777,0.6,6825
1778,0.62,7465
1779,0.24,2312
1780,0.41,3912
1781,0.27,2733
1782,0.48,5630
1783,0.67,7303
1784,1.64,23961
1785,1.3,20424
1786,2.23,42657
1787,1.51,25496
1788,2.82,62595
1789,2.04,37646
1790,1.88,32369
1791,2.46,49254
1792,2.3,46651
1793,0.2,2009
1794,0.57,6138
1795,1.44,17572
1796,2.59,44482
1797,0.38,3630
1798,0.48,4844
1799,0.21,2059
1800,1.33,13377
1801,1.1,14041
1802,1.65,28726
1803,1.31,18515
1804,3.13,64304
1805,2.36,42847
1806,4.1,81640
1807,5.14,106421
1808,7.76,148954
1809,1.15,17623
1810,0.61,6980
1811,0.72,7942
1812,0.5,5338
1813,0.86,9223
1814,0.49,4389
1815,0.52,5900
1816,1.25,18200
1817,1.21,19878
1818,1.13,19763
1819,1.0,14159
1820,1.05,15196
1821,0.97,12181
1822,1.13,15975
1823,1.02,12110
1824,1.46,23155
1825,1.41,18647
1826,2.24,37049
1827,1.38,18264
1828,4.44,75393
1829,1.44,18001
1830,1.92,29738
1831,1.34,18228
1832,4.83,80814
1833,1.51,22484
1834,1.92,33859
1835,2.44,45490
1836,2.56,49030
1837,3.78,71940
1838,13.9,235566
1839,4.01,76592
1840,13.51,228529
1841,1.07,14394
1842,1.21,16389
1843,1.24,18224
1844,1.59,24087
1845,1.1,13855
1846,1.43,22733
1847,1.28,20222
1848,1.54,22111
1849,1.74,27962
1850,3.25,50921
1851,1.73,27091
1852,3.51,58194
1853,1.5,20158
1854,2.34,31215
1855,1.44,17569
1856,2.45,34386
1857,0.63,6548
1858,0.65,6456
1859,0.63,6129
1860,1.4,12803
1861,1.46,15900
1862,2.9,41432
1863,1.51,13261
1864,0.6,4699
1865,1.9,30258
1866,3.72,60844
1867,3.72,59097
1868,8.13,130004
1869,2.25,35805
1870,2.33,31808
1871,1.56,18294
1872,2.31,33745
1873,0.47,4879
1874,0.51,4950
1875,0.57,6001
1876,1.38,12809
1877,0.42,3891
1878,1.02,10824
1879,3.03,42956
1880,1.48,15487
1881,1.62,24926
1882,2.99,52611
1883,2.95,50354
1884,10.53,181043
1885,2.74,42686
1886,2.2,31998
1887,1.67,21027
1888,2.75,40558
1889,1.39,19868
1890,2.24,31182
1891,2.18,41372
1892,5.11,90737
1893,1.4,21033
1894,4.04,69508
1895,5.79,113324
1896,13.4,248346
1897,1.92,24854
1898,3.32,51436
1899,5.34,98236
1900,16.96,277435
1901,9.89,161076
1902,36.03,566797
1903,9.41,169214
1904,21.19,357545
1905,0.91,11780
1906,0.98,14215
1907,0.88,10582
1908,0.99,13768
1909,0.66,7890
1910,0.71,8441
1911,1.19,19504
1912,1.22,19669
1913,0.25,3032
1914,0.33,4017
1915,0.38,4383
1916,0.48,5746
1917,0.73,8395
1918,1.17,18391
1919,0.54,6756
1920,1.12,17195
1921,1.28,21198
1922,4.41,96604
1923,4.28,88191
1924,4.35,87866
1925,1.55,30847
1926,4.07,87452
1927,0.8,11802
1928,1.55,30759
1929,0.49,5574
1930,1.51,25033
1931,2.4,48927
1932,3.16,72508
1933,0.63,7503
1934,1.62,28580
1935,2.83,58732
1936,3.69,85826
1937,0.5,6358
1938,0.58,6649
1939,1.27,20613
1940,1.14,18106
1941,0.57,6693
1942,0.63,7395
1943,0.24,2134
1944,0.3,3023
1945,0.67,8421
1946,0.67,7990
1947,0.66,7858
1948,0.59,6911
1949,0.7,6799
1950,2.06,36509
1951,0.62,6013
1952,2.14,37292
1953,0.61,7140
1954,0.54,6474
1955,0.39,3887
1956,0.39,4075
1957,2.44,47085
1958,2.17,38559
1959,1.77,32410
1960,2.18,39282
1961,2.12,44731
1962,1.37,24597
1963,6.86,156132
1964,2.86,68190
1965,1.6,30905
1966,1.92,36043
1967,2.24,50137
1968,8.12,182276
1969,1.53,30552
1970,1.57,31118
1971,3.62,79066
1972,3.23,72946
1973,0.66,7423
1974,0.63,7290
1975,1.18,19287
1976,1.57,30455
1977,3.67,80922
1978,4.08,93556
1979,11.09,217636
1980,18.91,358318
1981,1.04,16351
1982,1.2,18498
1983,3.4,75162
1984,3.24,69652
1985,1.13,18002
1986,1.18,20015
1987,3.68,81277
1988,3.55,77082
1989,1.05,16851
1990,1.39,23591
1991,0.74,8219
1992,1.16,16545
1993,0.01,79
1994,1.54,25301
1995,1.58,26519
1996,1.46,24550
1997,2.32,42016
1998,0.31,3337
1999,0.29,2959
2000,0.37,3898
2001,0.38,3715
2002,0.28,2958
2003,0.29,3255
2004,0.39,4269
2005,0.36,3543
2006,0.02,128
2007,1.32,19104
2008,1.67,31089
2009,4.29,90872
2010,1.45,26602
2011,1.44,28103
2012,1.53,28556
2013,0.55,6964
2014,0.55,6865
2015,0.38,3946
2016,0.72,8699
2017,0.81,8810
2018,1.04,13077
2019,0.02,61
2020,1.12,17515
2021,1.12,16796
2022,1.28,20787
2023,1.36,18777
2024,0.01,51
2025,0.02,202
2026,0.02,93
2027,0.02,94
2028,3.21,61829
2029,1.89,31167
2030,0.51,4440
2031,5.87,112363
2032,2.77,50363
2033,2.98,52491
2034,2.93,52036
2035,3.47,57663
2036,0.02,153
2037,0.02,86
2038,0.01,53
2039,0.02,127
2040,0.02,78
2041,9.58,173909
2042,0.02,109
2043,6.87,128878
2044,5.17,95738
2045,0.42,4804
2046,0.35,3859
2047,0.52,6222
2048,0.35,3829
2049,0.57,6821
2050,0.49,5959
2051,0.31,3497
2052,0.41,4994
2053,0.75,7766
2054,0.64,7016
2055,0.89,11024
2056,1.25,22878
2057,0.45,5259
2058,1.22,18514
2059,1.16,16521
2060,1.34,21803
2061,0.02,124
2062,0.01,63
2063,28.44,522494
2064,7.16,155539
2065,0.02,169
2066,11.54,243629
2067,1.25,19416
2068,1.22,20347
2069,1.62,31004
2070,24.5,430732
2071,1.23,19473
2072,1.19,17995
2073,57.59,961010
2074,77.5,1295499
2075,0.87,11640
2076,1.02,12470
2077,0.93,11220
2078,0.98,12641
2079,0.64,7657
2080,0.64,7935
2081,1.18,17754
2082,1.1,17663
2083,0.68,8198
2084,0.64,8486
2085,1.12,17476
2086,1.13,18783
2087,0.3,3518
2088,0.46,5643
2089,0.67,8100
2090,0.66,7276
2091,0.76,9038
2092,0.91,13703
2093,1.16,19302
2094,1.1,18587
2095,0.6,7101
2096,0.58,6738
2097,0.67,7345
2098,0.5,5432
2099,0.51,6153
2100,0.56,6822
2101,0.41,4743
2102,0.71,8172
2103,0.95,10858
2104,0.89,9947
2105,0.46,4226
2106,1.15,13805
2107,0.41,4763
2108,0.52,5830
2109,1.2,19073
2110,1.18,17267
2111,0.49,5811
2112,0.41,4591
2113,0.35,3340
2114,0.3,3066
2115,0.4,4813
2116,0.38,3809
2117,0.36,3575
2118,0.45,4103
2119,0.4,4742
2120,0.36,3776
2121,0.4,4153
2122,0.45,3867
2123,1.06,15640
2124,1.16,18525
2125,0.44,4544
2126,0.47,5213
2127,0.39,4508
2128,0.48,5150
2129,0.49,4573
2130,0.46,4532
2131,1.04,16397
2132,1.13,18021
2133,0.46,5115
2134,0.43,4923
2135,1.18,18505
2136,1.19,20257
2137,4.86,100414
2138,4.66,94926
2139,0.51,6194
2140,0.55,6589
2141,0.34,3293
2142,0.27,2572
2143,0.41,4519
2144,0.43,4954
2145,0.51,5225
2146,0.5,4897
2147,0.45,5553
2148,0.53,6532
2149,0.45,4778
2150,0.8,8912
2151,0.48,5711
2152,0.44,5034
2153,0.65,6712
2154,1.19,14704
2155,0.54,7161
2156,0.47,6252
2157,0.49,5895
2158,0.72,8868
2159,1.37,18976
2160,1.33,17894
2161,0.53,5907
2162,0.56,5599
2163,0.53,4787
2164,0.51,4728
2165,1.31,12785
2166,1.23,11370
2167,0.34,3298
2168,1.34,19568
2169,3.22,55062
2170,3.49,57429
2171,0.57,6774
2172,0.54,6542
2173,1.06,15838
2174,1.15,17954
2175,0.6,7384
2176,0.64,7920
2177,0.18,1892
2178,0.43,4322
2179,0.55,6573
2180,0.64,7426
2181,0.46,4579
2182,0.49,5121
2183,0.41,4540
2184,0.41,4332
2185,0.59,5833
2186,0.64,6315
2187,1.19,19063
2188,1.18,19039
2189,0.62,7762
2190,0.4,4777
2191,0.57,7131
2192,0.48,5743
2193,0.36,3904
2194,0.99,10792
2195,0.59,6698
2196,1.0,12575
2197,0.97,9249
2198,1.52,21947
2199,0.76,8629
2200,1.02,11946
2201,0.9,9782
2202,1.56,22206
2203,0.69,8104
2204,1.3,20144
2205,1.66,30387
2206,4.32,92941
2207,0.01,108
2208,2.57,50227
2209,2.66,50747
2210,3.13,70344
2211,1.49,28183
2212,0.64,7127
2213,2.09,41816
2214,4.28,95419
2215,29.62,524678
2216,3.52,76621
2217,1.72,32543
2218,1.5,27606
2219,3.47,75285
2220,1.25,19286
2221,1.49,28053
2222,1.37,21270
2223,1.0,11017
2224,1.46,24632
2225,1.5,27458
2226,1.39,23253
2227,1.39,23643
2228,1.66,27665
2229,1.67,30227
2230,1.71,29208
2231,1.43,22748
2232,2.26,40077
2233,2.14,38208
2234,1.52,30594
2235,4.03,82789
2236,1.48,28720
2237,1.23,20770
2238,1.47,28536
2239,1.15,20733
2240,1.22,20724
2241,1.36,20775
2242,0.69,8126
2243,0.48,4640
2244,1.36,22091
2245,1.46,28062
2246,1.13,15475
2247,1.19,16604
2248,1.25,17367
2249,1.99,37276
2250,1.21,17722
2251,1.14,17106
2252,1.13,18134
2253,1.07,15442
2254,0.02,54
2255,1.43,23483
2256,1.72,29555
2257,0.01,18
2258,1.71,26685
2259,2.58,49503
2260,2.13,37245
2261,5.11,89569
2262,1.91,32113
2263,4.67,84466
2264,1.13,18232
2265,1.09,16720
2266,0.57,6687
2267,0.63,7046
2268,1.24,19338
2269,1.39,25393
2270,0.7,7764
2271,1.41,22625
2272,4.43,85911
2273,3.75,83114
2274,4.01,87444
2275,1.63,36451
2276,2.55,57176
2277,3.12,68877
2278,3.08,67149
2279,5.81,129076
2280,0.73,8381
2281,0.7,7211
2282,1.37,18034
2283,1.77,29567
2284,2.69,51678
2285,4.86,109647
2286,5.59,116924
2287,5.89,127230
2288,4.18,91647
2289,1.89,39364
2290,1.12,15291
2291,2.65,56279
2292,0.64,7288
2293,3.25,80163
2294,1.24,16623
2295,6.05,135146
2296,0.36,3920
2297,0.34,3627
2298,0.24,2360
2299,0.38,4085
2300,0.47,5678
2301,0.9,10080
2302,0.35,3612
2303,1.67,25692
2304,0.78,9107
2305,1.02,14414
2306,1.8,36024
2307,2.32,49390
2308,1.67,32660
2309,1.43,25844
2310,3.14,65236
2311,4.97,118260
2312,0.47,4984
2313,0.97,9634
2314,3.61,58396
2315,3.73,60406
2316,0.63,6779
2317,4.41,83854
2318,7.12,143426
2319,13.43,248455
2320,1.56,28810
2321,1.41,25689
2322,1.09,11887
2323,2.09,43595
2324,0.57,6244
2325,1.98,40673
2326,1.53,22297
2327,6.82,146344
2328,1.04,16523
2329,1.19,19534
2330,1.09,17442
2331,1.08,17907
2332,0.6,7381
2333,0.56,6679
2334,0.45,5626
2335,0.45,5241
2336,1.87,36997
2337,2.55,53046
2338,2.08,42019
2339,2.31,45021
2340,1.14,17413
2341,1.11,17217
2342,1.2,17658
2343,1.15,17185
2344,0.36,5601
2345,0.39,4471
2346,0.62,7303
2347,0.59,6931
2348,1.5,30711
2349,1.49,28356
2350,0.62,7504
2351,0.5,5806
2352,0.41,4489
2353,0.48,5569
2354,0.69,7775
2355,0.56,6569
2356,0.23,2256
2357,0.37,4007
2358,0.58,6310
2359,0.83,8292
2360,0.46,4895
2361,0.44,4908
2362,1.12,18090
2363,1.2,20059
2364,0.47,5131
2365,0.43,4807
2366,0.41,4392
2367,0.46,4779
2368,0.7,8871
2369,0.67,7794
2370,0.75,9302
2371,0.92,10072
2372,1.0,13612
2373,0.75,8877
2374,0.76,8844
2375,1.0,12569
2376,0.67,7827
2377,0.64,7424
2378,0.56,7101
2379,0.43,5537
2380,0.23,2375
2381,0.48,4799
2382,0.42,4852
2383,0.84,9305
2384,0.26,2708
2385,0.39,3793
2386,0.44,4493
2387,0.77,8970
2388,0.27,2282
2389,0.57,5608
2390,0.65,6551
2391,1.63,24471
2392,1.43,27896
2393,1.53,30599
2394,0.86,11595
2395,0.92,11675
2396,1.39,26047
2397,1.54,29346
2398,3.57,77518
2399,3.5,73954
2400,1.61,30239
2401,1.5,29154
2402,0.61,7062
2403,0.99,14414
2404,0.71,7681
2405,0.97,13717
2406,0.89,9678
2407,1.05,12912
2408,4.36,94469
2409,2.66,58146
2410,2.21,45061
2411,1.93,37515
2412,5.4,119122
2413,2.18,43830
2414,4.6,104163
2415,25.05,466392
2416,0.73,8211
2417,2.04,45541
2418,2.14,41622
2419,13.16,273163
2420,0.7,8333
2421,3.37,79454
2422,1.42,20377
2423,6.26,134496
2424,1.47,27293
2425,1.48,29526
2426,0.61,7539
2427,0.64,7948
2428,0.49,5523
2429,0.57,7301
2430,0.53,6373
2431,0.83,12962
2432,1.04,19198
2433,1.02,18744
2434,0.27,2875
2435,0.85,9424
2436,0.57,6332
2437,0.97,12829
2438,0.54,5522
2439,1.66,27456
2440,1.84,37125
2441,1.56,26051
2442,4.06,84478
2443,1.67,32157
2444,1.84,37652
2445,1.7,32574
2446,1.67,31071
2447,2.3,43110
2448,1.0,12241
2449,1.18,16521
2450,1.29,18672
2451,5.27,121357
2452,1.68,32679
2453,0.9,9337
2454,1.36,16531
2455,5.97,123324
2456,1.07,16382
2457,1.07,16375
2458,1.01,14627
2459,1.13,16901
2460,0.6,6916
2461,0.53,6452
2462,0.65,7615
2463,0.69,8102
2464,0.64,7551
2465,0.64,8034
2466,0.67,7949
2467,0.72,8783
2468,0.21,2094
2469,0.43,4195
2470,0.55,5807
2471,0.88,9818
2472,0.44,4830
2473,0.69,7700
2474,0.57,6251
2475,0.69,7530
2476,0.42,4329
2477,1.02,11702
2478,1.53,20273
2479,0.98,8843
2480,0.45,5072
2481,0.83,8831
2482,0.76,8391
2483,0.83,9127
2484,0.43,3884
2485,1.13,13977
2486,1.5,21791
2487,1.21,12813
2488,0.43,5083
2489,0.4,4945
2490,0.7,7999
2491,0.61,7025
2492,0.24,2535
2493,0.43,3793
2494,0.45,4598
2495,0.7,7413
2496,0.28,2765
2497,0.34,3697
2498,0.5,5354
2499,0.76,8262
2500,0.6,5933
2501,0.67,5844
2502,0.62,6174
2503,1.57,24173
2504,0.44,4478
2505,0.41,3546
2506,0.55,5787
2507,0.26,2639
2508,0.55,5157
2509,0.28,2652
2510,1.31,10563
2511,0.47,4006
2512,0.03,242
2513,1.73,23900
2514,3.77,69667
2515,0.61,5531
2516,1.78,22348
2517,1.64,30105
2518,3.68,79041
2519,1.65,32282
2520,1.28,21712
2521,0.57,6787
2522,1.87,40232
2523,1.07,13427
2524,1.56,26853
2525,1.54,29668
2526,1.25,19558
2527,2.05,44371
2528,7.17,146578
2529,1.8,38422
2530,1.86,33631
2531,3.1,68096
2532,3.82,84462
2533,1.67,30279
2534,1.23,19686
2535,1.4,21418
2536,1.42,20713
2537,1.03,14464
2538,1.11,11524
2539,1.6,27398
2540,2.14,38080
2541,1.86,32470
2542,2.44,49519
2543,1.62,25942
2544,2.44,47012
2545,2.19,37809
2546,1.33,16304
2547,12.55,253834
2548,11.53,235787
2549,1.54,30121
2550,1.08,15109
2551,1.02,14296
2552,1.23,18200
2553,0.99,17336
2554,1.22,17947
2555,1.34,21703
2556,1.68,27597
2557,0.73,7361
2558,2.07,38779
2559,1.41,26973
2560,2.47,48214
2561,0.47,5087
2562,2.86,64598
2563,1.29,17009
2564,6.54,140402
2565,1.18,16787
2566,0.98,9585
2567,0.81,8332
2568,1.6,22015
2569,1.3,18304
2570,1.99,36126
2571,4.01,71800
2572,1.89,28126
2573,1.59,27779
2574,1.9,33083
2575,1.72,24137
2576,4.58,91592
2577,3.01,49355
2578,15.0,260431
2579,3.73,71760
2580,8.45,158230
2581,1.15,16571
2582,1.23,19419
2583,1.08,15926
2584,1.17,19046
2585,0.75,8906
2586,0.62,7304
2587,0.68,8011
2588,0.7,8299
2589,0.45,5403
2590,0.52,6154
2591,0.6,6835
2592,0.66,7456
2593,0.29,2910
2594,0.32,3522
2595,0.45,5683
2596,0.31,3229
2597,0.2,2142
2598,0.15,1506
2599,0.25,2691
2600,0.29,3567
2601,0.76,8753
2602,0.78,8443
2603,0.5,5336
2604,0.49,5252
2605,0.4,4334
2606,0.39,3730
2607,0.4,4074
2608,0.5,5865
2609,0.23,2243
2610,0.33,3328
2611,1.13,14502
2612,0.51,4899
2613,0.58,6725
2614,0.61,7094
2615,0.24,2318
2616,0.4,4273
2617,0.25,2722
2618,0.46,4492
2619,0.68,6601
2620,0.57,5752
2621,0.61,7322
2622,0.91,9875
2623,0.85,9498
2624,1.47,18616
2625,0.67,8474
2626,0.71,7751
2627,1.02,12455
2628,1.31,16477
2629,0.23,2377
2630,0.35,3622
2631,0.21,1956
2632,0.46,4691
2633,0.25,2164
2634,0.4,3778
2635,1.39,13199
2636,1.31,11365
2637,0.39,3855
2638,0.45,4236
2639,0.99,9854
2640,1.37,13385
2641,1.52,20179
2642,3.05,55828
2643,1.45,18718
2644,1.33,14018
2645,1.58,30596
2646,4.24,86901
2647,0.64,7437
2648,2.39,47787
2649,1.55,28629
2650,1.37,23587
2651,1.36,21900
2652,1.42,22587
2653,0.81,9610
2654,1.34,19980
2655,4.99,108936
2656,1.87,41851
2657,0.8,9146
2658,1.4,25206
2659,1.41,24336
2660,3.51,76731
2661,0.02,143
2662,1.71,28769
2663,1.67,30286
2664,1.77,33567
2665,2.29,44806
2666,0.5,5710
2667,0.48,5099
2668,1.49,29195
2669,1.83,36482
2670,0.49,5370
2671,1.46,22281
2672,1.48,20614
2673,4.93,112107
2674,1.48,25035
2675,1.05,13687
2676,1.22,16522
2677,1.27,14888
2678,1.01,10135
2679,1.04,11407
2680,0.8,8474
2681,1.49,17779
2682,1.41,23741
2683,1.08,17180
2684,1.52,27745
2685,1.74,30880
2686,2.27,45294
2687,1.51,22710
2688,1.61,28745
2689,3.31,59457
2690,0.02,153
2691,3.25,65792
2692,1.8,29970
2693,2.96,58567
2694,2.85,57020
2695,2.5,52068
2696,1.57,26669
2697,6.21,131389
2698,0.01,64
2699,2.33,41634
2700,1.56,20797
2701,4.89,93668
2702,1.64,28374
2703,3.47,69753
2704,2.47,39350
2705,14.61,276074
2706,0.68,7891
2707,0.6,7359
2708,0.92,14044
2709,1.04,16368
2710,0.29,3010
2711,0.45,4532
2712,0.74,9209
2713,0.49,5412
2714,0.24,2476
2715,0.32,3376
2716,0.44,5036
2717,0.78,9518
2718,1.54,21246
2719,1.55,23422
2720,1.63,21336
2721,1.48,20492
2722,0.24,2418
2723,0.38,3585
2724,0.24,2552
2725,0.99,13012
2726,1.57,20392
2727,1.64,26402
2728,0.55,5478
2729,1.39,19400
2730,0.52,4971
2731,1.54,23807
2732,0.53,4813
2733,1.49,22774
2734,1.38,15106
2735,3.11,50955
2736,1.28,11298
2737,3.12,51959
2738,0.63,7445
2739,0.43,4307
2740,1.81,33723
2741,2.24,42960
2742,2.36,52515
2743,1.54,28944
2744,2.07,45885
2745,2.73,58965
2746,1.94,30762
2747,2.38,44800
2748,1.99,30638
2749,2.28,39225
2750,2.08,36447
2751,6.37,133263
2752,2.05,36417
2753,5.54,118023
2754,0.48,5706
2755,0.44,4834
2756,0.35,4082
2757,0.56,5307
2758,1.77,28863
2759,3.68,63156
2760,1.63,21582
2761,1.59,19463
2762,0.93,9496
2763,2.1,40281
2764,3.83,81961
2765,4.17,93575
2766,4.42,80330
2767,4.86,85106
2768,4.17,72278
2769,14.59,273653
2770,0.68,8118
2771,0.45,4395
2772,0.53,5857
2773,0.61,6048
2774,0.51,5604
2775,0.67,6637
2776,0.6,6142
2777,1.46,16204
2778,0.62,6760
2779,1.42,19633
2780,1.16,15268
2781,1.8,31338
2782,1.88,26739
2783,3.53,65778
2784,0.57,5598
2785,1.99,29628
2786,0.32,3497
2787,0.35,3298
2788,0.86,8154
2789,1.39,16514
2790,0.44,3876
2791,1.03,9883
2792,1.47,15764
2793,2.68,38659
2794,0.6,6543
2795,1.55,20112
2796,1.13,15743
2797,3.11,55006
2798,4.37,78153
2799,8.22,141141
2800,2.85,48413
2801,2.63,40870
2802,0.45,5341
2803,0.52,5130
2804,0.53,5572
2805,1.47,14144
2806,0.54,5126
2807,1.51,14341
2808,1.25,11448
2809,2.67,37706
2810,0.92,10541
2811,1.65,25244
2812,1.44,24069
2813,3.47,56151
2814,3.22,54555
2815,9.76,166395
2816,3.05,51505
2817,2.68,40797
2818,1.06,12794
2819,1.21,14039
2820,4.74,87257
2821,2.19,33077
2822,2.36,46593
2823,5.07,99037
2824,6.38,128077
2825,20.32,383161
2826,1.83,23889
2827,3.71,60638
2828,3.51,65016
2829,12.95,226696
2830,9.5,163914
2831,47.16,745360
2832,21.38,382310
2833,25.7,436644
2834,1.09,17577
2835,1.13,19410
2836,1.74,34228
2837,1.58,31909
2838,1.7,34740
2839,2.36,50413
2840,1.86,36656
2841,2.15,47755
2842,0.71,9207
2843,0.85,10466
2844,0.67,8159
2845,1.05,16088
2846,0.51,6202
2847,0.55,6539
2848,0.67,8236
2849,0.6,7527
2850,0.31,3446
2851,0.59,6875
2852,0.63,7425
2853,0.48,5803
2854,0.02,128
2855,0.25,2326
2856,0.23,2287
2857,0.23,2350
2858,0.44,5413
2859,0.46,5546
2860,1.11,17690
2861,1.13,19054
2862,0.65,7713
2863,0.98,15391
2864,0.17,1989
2865,0.75,8786
2866,1.59,32891
2867,1.42,27288
2868,3.81,81122
2869,3.43,72025
2870,0.6,7454
2871,0.63,7806
2872,1.66,34283
2873,0.74,8901
2874,0.52,6384
2875,0.66,7682
2876,0.69,8004
2877,1.42,26458
2878,0.52,5538
2879,1.21,19243
2880,0.37,3907
2881,0.79,9092
2882,0.73,8163
2883,0.43,4105
2884,0.67,7410
2885,0.44,4493
2886,1.76,37210
2887,1.3,23044
2888,1.69,35767
2889,1.58,27895
2890,0.24,2021
2891,0.26,2148
2892,0.73,7844
2893,0.62,6028
2894,0.86,7619
2895,0.53,5926
2896,2.83,62685
2897,2.28,43466
2898,1.58,31984
2899,1.47,28146
2900,3.76,81264
2901,4.26,87388
2902,0.55,6623
2903,0.64,7703
2904,1.46,27189
2905,0.71,8798
2906,0.58,7188
2907,0.6,7576
2908,0.54,6827
2909,1.52,30108
2910,0.29,3098
2911,0.18,1856
2912,1.24,19139
2913,0.86,9388
2914,0.62,7057
2915,0.57,6421
2916,0.35,3269
2917,0.37,4081
2918,1.43,29107
2919,0.95,12826
2920,1.04,17404
2921,0.96,13123
2922,0.4,4102
2923,0.37,3872
2924,1.19,18228
2925,0.86,10269
2926,0.2,1956
2927,0.54,4600
2928,1.28,20103
2929,1.63,23433
2930,0.15,1757
2931,0.23,2452
2932,0.22,2032
2933,0.25,2418
2934,0.67,7138
2935,0.76,7636
2936,1.16,14097
2937,1.18,15611
2938,0.44,4401
2939,0.55,5521
2940,0.95,10059
2941,1.08,11322
2942,0.66,6462
2943,1.02,9153
2944,0.53,4566
2945,2.13,27460
2946,1.57,27354
2947,2.1,41580
2948,1.51,25406
2949,2.15,41044
2950,2.69,52749
2951,3.72,78178
2952,2.88,58645
2953,3.47,71981
2954,0.4,4244
2955,0.52,5091
2956,1.23,22126
2957,1.26,18560
2958,2.48,47736
2959,3.84,78428
2960,3.75,76333
2961,7.95,141718
2962,1.57,32456
2963,1.46,30119
2964,0.86,9724
2965,0.98,15479
2966,1.54,29676
2967,1.5,28012
2968,4.09,85221
2969,3.95,82421
2970,1.49,29006
2971,1.54,30113
2972,0.59,7171
2973,1.08,16925
2974,0.62,7280
2975,1.0,14465
2976,0.66,6993
2977,1.06,13048
2978,1.42,28880
2979,1.22,20848
2980,1.2,21745
2981,1.32,19698
2982,1.44,27049
2983,1.13,18614
2984,1.24,20697
2985,1.41,21316
2986,0.53,6401
2987,1.22,20596
2988,1.27,20891
2989,1.2,19137
2990,1.25,21385
2991,5.17,109425
2992,1.38,21933
2993,1.48,23570
2994,1.18,18820
2995,1.17,17707
2996,3.15,70831
2997,3.4,74196
2998,0.43,4723
2999,0.38,3903
3000,1.56,31618
3001,1.15,19374
3002,3.36,76671
3003,3.78,85790
3004,1.15,18675
3005,1.12,17194
3006,3.27,74216
3007,3.77,84551
3008,11.75,231335
3009,16.41,305478
3010,3.52,76700
3011,1.52,28867
3012,1.27,20858
3013,1.64,28596
3014,1.69,33664
3015,3.38,73924
3016,0.65,7698
3017,1.86,38388
3018,3.45,77432
3019,2.99,65573
3020,21.1,396191
3021,37.36,635948
3022,1.5,28312
3023,3.54,78476
3024,3.67,82119
3025,1.59,30948
3026,0.69,7717
3027,0.56,5746
3028,0.5,5432
3029,0.65,6646
3030,0.95,12095
3031,1.11,14330
3032,0.95,8983
3033,1.73,25547
3034,1.65,32103
3035,1.61,31680
3036,0.54,6142
3037,1.05,14580
3038,0.69,8014
3039,1.2,18639
3040,0.57,5597
3041,1.18,15960
3042,0.73,8103
3043,0.56,5764
3044,1.7,35469
3045,1.94,36735
3046,1.38,20845
3047,1.31,19905
3048,1.21,16138
3049,1.81,26958
3050,1.44,26892
3051,1.33,20743
3052,1.37,21365
3053,1.25,18021
3054,0.85,9277
3055,1.49,23974
3056,1.4,21783
3057,1.59,26231
3058,1.57,29693
3059,1.6,29384
3060,0.7,7412
3061,0.89,10295
3062,0.69,7761
3063,0.89,10072
3064,0.59,6001
3065,1.13,13975
3066,1.16,17232
3067,1.17,17925
3068,3.52,76596
3069,3.58,76324
3070,1.11,17024
3071,1.31,22157
3072,0.77,8752
3073,1.14,17835
3074,0.74,7968
3075,0.7,7468
3076,1.21,16873
3077,1.15,16882
3078,4.65,100931
3079,4.27,96252
3080,1.68,31946
3081,2.0,41236
3082,1.13,15997
3083,0.98,13618
3084,0.53,5413
3085,1.23,18142
3086,1.4,23989
3087,1.62,29678
3088,1.88,35000
3089,1.41,23202
3090,0.02,117
3091,0.03,234
3092,0.04,229
3093,0.05,382
3094,0.02,75
3095,0.02,102
3096,0.07,640
3097,0.22,2423
3098,0.33,3489
3099,0.17,1745
3100,0.49,5081
3101,0.11,1299
3102,0.43,4445
3103,0.27,2975
3104,0.26,2650
3105,0.31,3238
3106,0.42,4513
3107,0.09,879
3108,0.13,1266
3109,0.06,675
3110,0.04,365
3111,0.05,499
3112,0.04,360
3113,0.02,41
3114,0.07,780
3115,0.43,4687
3116,0.6,5973
3117,0.05,573
3118,0.74,8270
3119,0.53,6225
3120,0.23,2313
3121,0.01,41
3122,0.06,612
3123,0.49,5178
3124,0.5,5475
3125,0.5,5189
3126,0.49,5331
3127,0.55,6345
3128,0.23,2222
3129,0.57,6314
3130,1.47,25029
3131,0.41,4071
3132,1.53,28357
3133,0.47,4642
3134,0.3,2747
3135,1.46,26541
3136,2.37,48257
3137,0.52,6124
3138,1.5,25674
3139,1.23,20131
3140,1.27,21378
3141,1.49,25531
3142,1.19,18097
3143,1.28,20377
3144,2.23,40325
3145,0.54,5864
3146,1.54,27395
3147,1.15,18270
3148,1.25,20462
3149,0.5,5717
3150,1.36,23796
3151,0.55,5765
3152,1.75,31522
3153,0.3,2982
3154,1.37,25190
3155,0.32,2863
3156,2.01,38502
3157,0.48,4556
3158,0.56,5978
3159,1.83,35100
3160,3.13,53981
3161,1.4,25716
3162,1.48,28395
3163,1.6,30486
3164,2.09,39836
3165,1.42,19243
3166,0.76,8360
3167,1.35,25302
3168,2.84,56966
3169,0.77,8167
3170,1.99,40139
3171,1.61,29723
3172,2.07,41617
3173,1.6,29543
3174,2.19,43694
3175,1.27,17127
3176,4.62,91577
3177,1.7,31351
3178,1.79,34771
3179,0.68,6919
3180,3.08,66411
3181,0.81,8407
3182,2.28,46923
3183,1.57,27437
3184,2.81,51626
3185,1.45,26902
3186,1.68,31243
3187,1.5,27444
3188,2.03,39796
3189,1.41,24870
3190,1.85,34940
3191,0.84,8786
3192,3.95,76469
3193,4.16,91236
3194,1.89,38379
3195,1.88,37730
3196,1.6,29599
3197,1.0,12596
3198,2.73,58051
3199,1.75,32746
3200,2.44,45002
3201,1.91,37364
3202,0.99,14370
3203,7.63,162381
3204,3.76,82058
3205,1.4,20420
3206,4.87,119179
3207,1.51,21894
3208,4.72,97754
3209,1.34,21917
3210,4.48,101401
3211,2.22,47235
3212,1.98,36949
3213,6.8,148822
3214,3.7,77921
3215,5.86,127850
3216,3.47,70551
3217,4.38,97882
3218,2.34,49198
3219,4.0,88119
3220,25.21,450401
3221,6.56,137446
3222,6.26,136169
3223,6.26,136847
3224,43.2,701265
3225,5.77,127446
3226,14.64,319600
3227,8.7,187228
3228,10.0,212638
3229,2.27,48405
3230,5.28,117360
3231,5.2,105303
3232,9.17,184734
3233,18.4,364698
3234,22.11,435895
3235,102.92,1559678
3236,46.06,805069
3237,12.14,246703
3238,23.52,455190
3239,30.52,595295
3240,32.36,635076
3241,17.58,323494
3242,20.4,379077
3243,14.26,269056
3244,14.66,262637
3245,0.03,275
3246,63.11,1065236
3247,133.06,2094024
3248,20.32,391118
3249,19.92,392261
3250,23.13,460620
3251,17.18,341365
3252,142.84,2103122
3253,49.14,867679
3254,1.61,32037
3255,3.88,83765
3256,1.54,30912
3257,1.18,17758
3258,19.4,360095
3259,6.74,149547
3260,1.37,22206
3261,13.19,274969
3262,1.23,19021
3263,0.95,11565
3264,1.16,17468
3265,0.9,11140
3266,3.76,81975
3267,2.76,65625
3268,0.71,7178
3269,4.33,101354
3270,3.97,90122
3271,2.11,44622
3272,1.05,14142
3273,3.05,62259
3274,10.72,240186
3275,6.22,145924
3276,14.02,285150
3277,46.43,828470
3278,1.05,13375
3279,3.3,66721
3280,3.69,76549
3281,18.23,372524
3282,1.65,25790
3283,5.59,121119
3284,6.9,143353
3285,35.78,685501
3286,1.76,31134
3287,1.42,24606
3288,0.9,9518
3289,2.41,49110
3290,4.67,100629
3291,1.81,34757
3292,1.07,14776
3293,3.04,62798
3294,1.53,22510
3295,2.42,44390
3296,0.98,9609
3297,3.24,54617
3298,6.15,134392
3299,12.67,253444
3300,6.39,127652
3301,11.26,215492
3302,25.54,528536
3303,52.49,910760
3304,17.06,364299
3305,16.46,347766
3306,12.12,256092
3307,18.86,402806
3308,27.37,545695
3309,30.35,554124
3310,21.07,417744
3311,17.73,385841
3312,14.47,313127
3313,31.86,612859
3314,18.63,366824
3315,19.02,402813
3316,13.61,295686
3317,31.23,585378
3318,1.16,17813
3319,1.12,16493
3320,3.61,77876
3321,3.19,67182
3322,1.12,17765
3323,1.22,19959
3324,0.89,11085
3325,0.67,7322
3326,1.21,19848
3327,0.68,8107
3328,1.21,19002
3329,1.39,23926
3330,0.62,6739
3331,1.01,15193
3332,0.49,5406
3333,1.07,16894
3334,0.46,5066
3335,1.07,16079
3336,0.74,9378
3337,1.07,15930
3338,0.6,6948
3339,0.75,7967
3340,0.32,3200
3341,0.7,8212
3342,0.63,7399
3343,0.5,5081
3344,1.01,12315
3345,0.82,9074
3346,0.48,4830
3347,0.51,4849
3348,1.12,14783
3349,1.41,19680
3350,1.06,17543
3351,1.37,22055
3352,1.16,18155
3353,1.24,19236
3354,1.08,14634
3355,0.73,7510
3356,1.16,14994
3357,0.33,3251
3358,4.08,88193
3359,3.88,86286
3360,1.3,20876
3361,1.46,25071
3362,0.56,7069
3363,0.47,4833
3364,2.12,42974
3365,1.45,22697
3366,4.46,97079
3367,2.1,43162
3368,5.92,121094
3369,27.28,533759
3370,0.02,99
3371,7.0,156778
3372,6.61,145682
3373,1.34,23374
3374,1.41,24084
3375,7.08,162814
3376,6.44,149192
3377,1.53,27218
3378,1.72,30822
3379,2.48,54553
3380,4.61,99586
3381,0.69,8010
3382,1.1,17331
3383,0.59,5985
3384,0.58,6702
3385,1.14,18193
3386,0.74,8435
3387,1.18,17613
3388,0.69,7639
3389,0.78,8826
3390,0.58,6358
3391,1.03,15620
3392,0.81,9120
3393,1.0,12732
3394,0.9,9978
3395,1.57,24694
3396,1.5,25078
3397,0.62,7245
3398,0.38,3874
3399,0.51,5556
3400,0.61,6135
3401,0.97,13595
3402,0.91,13032
3403,1.15,16157
3404,1.36,20212
3405,0.53,5891
3406,0.59,5782
3407,0.52,5001
3408,1.3,14428
3409,1.22,15964
3410,1.44,19655
3411,1.46,22394
3412,3.18,52536
3413,1.31,22285
3414,1.64,31349
3415,0.99,11158
3416,1.54,25570
3417,0.99,11249
3418,0.93,9726
3419,1.52,24890
3420,1.81,30664
3421,7.49,162486
3422,4.06,93440
3423,3.33,69003
3424,8.34,178165
3425,3.14,68283
3426,3.74,83396
3427,4.82,108688
3428,7.18,158170
3429,1.03,15908
3430,1.15,15629
3431,1.28,20104
3432,1.7,30977
3433,0.87,13479
3434,1.49,25180
3435,1.63,26740
3436,3.6,63424
3437,3.03,67258
3438,3.57,81182
3439,3.76,80943
3440,6.84,153820
3441,1.94,36392
3442,4.14,76047
3443,7.82,168388
3444,15.27,300392
3445,1.17,17174
3446,1.18,16894
3447,3.3,74389
3448,3.34,72756
3449,1.59,31517
3450,1.45,29056
3451,0.68,8374
3452,0.68,7814
3453,1.51,30487
3454,1.45,26512
3455,0.45,4932
3456,0.84,9787
3457,0.6,6811
3458,1.03,14375
3459,0.45,5101
3460,1.05,15415
3461,0.02,99
3462,1.32,20587
3463,1.32,19757
3464,0.96,11792
3465,1.32,20148
3466,0.66,7584
3467,0.47,5072
3468,1.03,14909
3469,1.02,13967
3470,0.94,12308
3471,1.02,12055
3472,1.58,26079
3473,1.72,27100
3474,1.23,18836
3475,1.16,17686
3476,0.75,9412
3477,1.18,17591
3478,0.64,7502
3479,0.89,12836
3480,0.49,5335
3481,0.83,8902
3482,0.65,7765
3483,0.44,4540
3484,0.52,5138
3485,0.55,5720
3486,0.86,9627
3487,0.78,8682
3488,1.2,18117
3489,1.54,24520
3490,0.43,4786
3491,1.04,13711
3492,0.41,3775
3493,0.74,8226
3494,0.4,3877
3495,0.53,4864
3496,0.93,9892
3497,1.33,18656
3498,0.45,5015
3499,0.61,5989
3500,0.62,6143
3501,1.34,15073
3502,0.88,8904
3503,1.51,25457
3504,1.61,22460
3505,3.2,53044
3506,0.23,2154
3507,0.36,3573
3508,0.55,5229
3509,0.56,5560
3510,0.48,5025
3511,0.64,7233
3512,0.48,4917
3513,1.3,18424
3514,0.49,5137
3515,0.58,6026
3516,0.93,9736
3517,1.47,23950
3518,1.32,21751
3519,1.75,31066
3520,1.39,21489
3521,3.68,80381
3522,4.48,100074
3523,2.34,48329
3524,2.01,40967
3525,1.79,33361
3526,1.05,13941
3527,1.51,24470
3528,1.85,37325
3529,1.81,33265
3530,3.24,72894
3531,12.44,257283
3532,4.14,92240
3533,7.63,168101
3534,3.49,73433
3535,8.56,184052
3536,2.48,55834
3537,55.26,977097
3538,1.87,38591
3539,3.32,75497
3540,1.1,18424
3541,2.52,55953
3542,1.18,19025
3543,1.3,20358
3544,3.26,73692
3545,2.69,60916
3546,1.09,13741
3547,0.88,9483
3548,2.66,59267
3549,2.99,63593
3550,1.58,29246
3551,2.09,40596
3552,2.08,44420
3553,6.52,148283
3554,1.63,31122
3555,0.6,6354
3556,1.65,30234
3557,1.79,31730
3558,1.55,27653
3559,2.44,47785
3560,1.95,35054
3561,4.2,76297
3562,1.54,27655
3563,1.93,36211
3564,1.99,34670
3565,7.35,165769
3566,3.04,59907
3567,5.71,116836
3568,5.03,100439
3569,14.08,262202
3570,0.02,190
3571,0.02,138
3572,0.01,88
3573,0.01,64
3574,0.02,115
3575,0.02,145
3576,1.39,19670
3577,3.99,80019
3578,1.94,36661
3579,2.11,43416
3580,10.42,205698
3581,37.65,683284
3582,13.1,254098
3583,51.95,908445
3584,0.02,156
3585,0.02,134
3586,7.9,161303
3587,1.86,38238
3588,1.68,30689
3589,0.01,80
3590,3.46,68682
3591,2.02,39909
3592,1.68,29130
3593,1.52,23187
3594,2.62,52192
3595,1.65,30021
3596,2.29,43109
3597,2.27,44355
3598,4.17,78297
3599,2.25,46839
3600,1.43,25329
3601,6.23,137110
3602,4.18,97993
3603,1.02,12377
3604,3.26,68624
3605,2.76,58311
3606,12.61,279101
3607,0.02,84
3608,6.56,143216
3609,2.99,65355
3610,5.38,107594
3611,2.07,38760
3612,8.13,180143
3613,5.24,97276
3614,24.43,471415
3615,0.76,8912
3616,1.18,17206
3617,0.96,10122
3618,1.04,10471
3619,0.91,9624
3620,1.1,13929
3621,1.08,13300
3622,1.42,16855
3623,1.49,26806
3624,1.27,24348
3625,1.45,23974
3626,1.7,29512
3627,1.57,26944
3628,1.96,37131
3629,1.68,29513
3630,3.1,57777
3631,6.93,148577
3632,3.41,70004
3633,3.41,73843
3634,3.74,81286
3635,0.02,74
3636,5.14,112494
3637,3.51,72128
3638,5.83,114820
3639,3.18,67413
3640,11.31,246444
3641,2.86,59290
3642,15.11,324653
3643,2.29,41270
3644,7.32,161953
3645,5.69,109461
3646,23.04,462062
3647,1.26,17836
3648,0.98,12237
3649,1.34,19220
3650,1.59,25786
3651,1.19,17909
3652,1.73,27759
3653,2.14,36036
3654,3.84,64849
3655,3.06,59732
3656,2.94,48530
3657,3.24,69159
3658,5.84,120368
3659,6.16,134143
3660,6.83,139681
3661,14.72,317524
3662,19.21,363126
3663,1.52,23948
3664,1.93,29855
3665,2.65,53258
3666,5.5,100496
3667,1.12,13680
3668,3.84,65254
3669,6.5,124016
3670,11.59,211676
3671,1.7,22796
3672,3.73,59103
3673,5.28,99008
3674,14.83,246586
3675,9.06,185684
3676,38.11,698658
3677,18.56,318752
3678,95.82,1521627
3679,0.03,225
3680,1.9,36092
3681,2.03,36990
3682,1.19,18036
3683,1.44,25162
3684,0.84,9521
3685,1.13,17066
3686,1.2,15865
3687,1.14,13655
3688,1.26,22529
3689,1.66,29251
3690,1.32,22280
3691,1.66,27462
3692,1.91,33019
3693,3.62,61750
3694,2.42,57806
3695,2.49,57774
3696,1.51,28473
3697,8.26,186806
3698,3.23,68447
3699,5.84,128494
3700,5.09,104913
3701,22.56,442530
3702,0.02,149
3703,0.01,95
3704,21.45,406718
3705,25.7,495813
3706,1.21,18902
3707,0.82,9389
3708,1.32,20627
3709,1.46,22644
3710,1.04,12100
3711,1.58,26540
3712,1.73,29848
3713,3.37,57269
3714,2.79,60516
3715,3.0,63373
3716,3.34,69703
3717,5.29,107878
3718,6.39,144514
3719,11.79,262059
3720,6.86,149124
3721,22.39,414118
3722,1.81,32111
3723,2.39,46901
3724,2.28,44527
3725,4.62,82817
3726,2.3,41246
3727,6.47,121424
3728,3.2,52848
3729,12.77,230846
3730,1.98,30938
3731,3.41,53996
3732,4.52,89508
3733,15.93,273669
3734,3.19,69501
3735,43.39,773404
3736,5.38,115754
3737,95.84,1472872
3738,1.09,12386
3739,3.21,64058
3740,1.12,12755
3741,2.97,59224
3742,2.29,38999
3743,2.5,41965
3744,2.37,40429
3745,9.88,188090
3746,0.55,6101
3747,1.17,13055
3748,1.68,25464
3749,2.3,43026
3750,2.24,34011
3751,2.17,31150
3752,5.92,106506
3753,3.4,55828
3754,0.02,251
3755,3.49,72287
3756,2.56,48511
3757,14.99,316575
3758,32.09,592739
3759,4.82,101563
3760,6.69,147619
3761,2.97,59815
3762,8.8,186746
3763,0.02,115
3764,0.02,134
3765,0.02,201
3766,18.29,352408
3767,1.68,32462
3768,1.61,30458
3769,0.01,61
3770,3.05,63899
3771,1.48,21061
3772,2.49,50633
3773,2.25,45757
3774,4.55,81037
3775,1.43,21688
3776,1.7,24942
3777,2.65,52424
3778,4.51,92626
3779,1.7,24647
3780,3.01,50691
3781,5.2,100204
3782,15.15,254756
3783,2.82,64995
3784,2.82,65005
3785,3.85,89885
3786,5.59,124552
3787,3.62,72080
3788,6.68,137720
3789,5.92,133960
3790,25.66,485687
3791,3.03,57171
3792,6.87,135921
3793,6.14,125311
3794,14.62,261337
3795,5.2,113833
3796,23.12,424963
3797,17.67,308637
3798,81.47,1221546
