index,time,conflicts
0,0.04,469
1,0.03,265
2,0.16,1602
3,0.14,1137
4,0.06,500
5,0.02,215
6,0.1,896
7,0.06,464
8,0.04,277
9,0.03,306
10,0.02,143
11,0.03,284
12,0.06,442
13,0.15,1444
14,0.26,2137
15,0.05,543
16,0.04,385
17,0.15,1307
18,0.23,1955
19,0.25,2022
20,0.58,5560
21,0.14,867
22,0.15,1179
23,0.15,1136
24,0.07,526
25,0.05,412
26,0.14,1045
27,0.24,2009
28,0.24,2166
29,0.63,6045
30,0.15,887
31,0.11,991
32,0.15,1090
33,0.07,551
34,0.07,585
35,0.17,1530
36,0.46,3899
37,0.53,4390
38,0.2,1977
39,0.48,4848
40,0.13,999
41,0.12,903
42,0.43,3674
43,0.54,4635
44,0.56,5707
45,0.44,3974
46,0.39,3539
47,0.39,3603
48,0.48,4441
49,0.61,6039
50,0.21,1863
51,0.48,3669
52,0.14,1226
53,0.43,3462
54,0.13,1180
55,0.24,2022
56,0.44,3664
57,0.15,1376
58,0.49,4067
59,0.15,1204
60,0.46,3835
61,0.53,5049
62,0.59,5566
63,0.47,4104
64,0.32,2586
65,0.4,3298
66,0.49,4621
67,0.63,6122
68,0.45,4410
69,0.04,321
70,0.29,2604
71,0.05,479
72,0.14,1027
73,0.09,790
74,0.29,2287
75,0.74,6716
76,0.25,2065
77,0.17,1509
78,0.65,5587
79,0.31,2098
80,0.08,756
81,0.05,358
82,0.03,308
83,0.36,2673
84,0.04,345
85,0.15,1128
86,0.09,893
87,0.33,2496
88,0.24,1600
89,0.73,6412
90,0.33,2548
91,0.45,3697
92,0.54,4587
93,0.3,2277
94,0.11,771
95,0.07,553
96,0.1,742
97,0.1,767
98,0.31,2292
99,0.5,4786
100,0.03,232
101,0.11,937
102,0.08,754
103,0.06,554
104,0.09,818
105,0.2,1657
106,0.12,873
107,0.22,1770
108,0.85,7948
109,0.45,4165
110,0.26,2161
111,0.22,1957
112,0.26,2134
113,0.24,2012
114,1.12,15062
115,1.21,14470
116,0.46,4376
117,0.44,4049
118,0.46,4382
119,0.45,4309
120,0.22,1920
121,0.32,2590
122,0.39,3430
123,0.07,625
124,0.09,778
125,0.34,2410
126,0.54,4696
127,0.08,676
128,0.09,775
129,0.06,479
130,0.05,443
131,0.09,840
132,0.2,1827
133,0.14,926
134,0.2,1645
135,0.79,8130
136,0.5,4409
137,0.19,1673
138,0.18,1663
139,0.29,2379
140,0.27,2146
141,1.12,13286
142,1.16,14513
143,0.49,4564
144,0.46,4101
145,0.36,3353
146,0.44,4119
147,0.17,1373
148,0.23,1815
149,0.2,1861
150,0.47,5429
151,0.64,7348
152,0.3,2849
153,0.39,4222
154,0.66,7770
155,0.56,6452
156,0.4,3903
157,0.28,2532
158,0.33,3350
159,0.33,2983
160,0.65,7764
161,0.65,7665
162,0.45,4900
163,0.33,3595
164,0.28,2696
165,0.23,2157
166,0.34,3296
167,0.4,4210
168,0.44,4820
169,0.47,5109
170,0.46,5525
171,0.53,6202
172,0.38,4150
173,0.46,5546
174,0.33,2681
175,0.62,6151
176,0.36,3367
177,0.77,7700
178,0.39,2954
179,0.65,6467
180,0.49,4039
181,0.4,3571
182,0.64,6624
183,0.41,4312
184,0.16,1698
185,0.54,6139
186,0.3,3049
187,0.32,3287
188,0.58,5942
189,0.42,4011
190,0.57,5483
191,0.32,2611
192,0.51,5263
193,0.38,3525
194,0.52,4709
195,0.32,2779
196,1.31,19069
197,1.44,21851
198,1.28,20133
199,1.29,20197
200,0.17,1731
201,0.44,4985
202,0.56,6145
203,0.57,5465
204,0.52,5676
205,0.52,5188
206,0.28,2837
207,0.12,1059
208,0.29,2937
209,0.28,2854
210,0.18,1792
211,0.27,2212
212,0.41,3442
213,0.57,5766
214,0.33,2781
215,0.63,6489
216,0.41,3311
217,0.51,5292
218,0.39,3362
219,0.53,5196
220,0.34,3614
221,0.48,4855
222,0.44,5366
223,0.53,6424
224,0.27,2334
225,0.45,4854
226,0.25,2110
227,0.44,5520
228,0.31,2535
229,0.32,2821
230,0.2,1950
231,0.27,2431
232,0.53,5948
233,0.6,6327
234,0.45,4081
235,0.53,5353
236,0.37,3549
237,0.77,7942
238,1.1,14585
239,1.03,11991
240,0.35,2913
241,0.64,6650
242,0.57,5715
243,1.12,14173
244,0.34,3119
245,0.59,5380
246,0.34,2758
247,0.36,3164
248,0.19,1881
249,0.25,2190
250,0.66,6980
251,0.58,6736
252,0.33,2828
253,0.62,5885
254,0.33,2925
255,0.59,5923
256,0.57,5576
257,0.81,8202
258,0.76,7970
259,0.49,4405
260,0.64,6291
261,0.44,3775
262,0.66,6548
263,0.51,4916
264,1.15,15079
265,0.99,11973
266,0.08,667
267,0.06,502
268,0.07,654
269,0.28,2555
270,0.05,506
271,0.08,643
272,0.07,724
273,0.26,2562
274,0.3,2459
275,0.48,4212
276,0.2,1612
277,0.19,1623
278,0.34,2975
279,0.5,4811
280,0.18,1857
281,0.2,1735
282,0.27,2296
283,0.17,1774
284,0.29,2705
285,0.12,844
286,0.11,964
287,0.2,1566
288,0.18,1627
289,0.18,1767
290,0.16,1533
291,0.32,2943
292,0.07,612
293,0.35,3106
294,0.16,1208
295,0.26,2123
296,0.22,2022
297,0.55,5225
298,0.18,1453
299,0.19,1635
300,0.38,3146
301,0.67,6394
302,0.35,2705
303,0.19,1320
304,0.31,2434
305,0.25,2064
306,0.54,5774
307,0.31,2369
308,0.19,1755
309,0.21,1873
310,0.24,2237
311,0.57,5733
312,0.3,2450
313,0.59,6017
314,0.37,2740
315,0.34,2862
316,0.61,5812
317,0.38,3204
318,0.17,1268
319,0.27,2024
320,0.26,2048
321,0.56,5938
322,0.35,2837
323,0.23,2039
324,0.21,1865
325,0.14,1251
326,0.28,2611
327,0.56,4548
328,0.68,7471
329,0.37,3199
330,0.27,2568
331,0.41,4264
332,0.27,2277
333,0.48,4654
334,1.03,11063
335,0.99,11302
336,0.18,1714
337,0.21,1781
338,0.31,2521
339,0.32,2910
340,0.41,3904
341,0.65,7062
342,0.28,2605
343,0.28,2233
344,0.42,4328
345,0.21,1743
346,0.56,5073
347,1.01,9857
348,1.14,13873
349,0.05,501
350,0.05,454
351,0.06,408
352,0.05,471
353,0.06,461
354,0.08,680
355,0.06,562
356,0.07,619
357,0.36,2983
358,0.17,1619
359,0.25,2611
360,0.06,592
361,0.14,1377
362,0.14,1376
363,0.2,1946
364,0.81,8499
365,0.86,9014
366,0.16,1669
367,0.25,2697
368,0.06,611
369,0.26,2390
370,0.19,1815
371,0.14,1323
372,0.2,1990
373,0.14,1474
374,0.14,1269
375,0.14,1112
376,0.15,1539
377,0.46,4828
378,0.36,2986
379,0.34,2991
380,0.32,3116
381,0.08,684
382,0.14,1046
383,0.15,1291
384,0.33,2761
385,0.09,779
386,0.13,1064
387,0.16,1313
388,0.3,2718
389,0.2,1743
390,0.19,1909
391,0.15,1435
392,0.3,3084
393,0.28,2582
394,0.8,8691
395,0.25,2674
396,0.16,1525
397,0.25,2333
398,0.72,7454
399,0.16,1398
400,0.38,3058
401,0.06,471
402,0.06,586
403,0.15,1184
404,0.34,3158
405,0.07,587
406,0.08,685
407,0.15,1349
408,0.33,2848
409,0.2,1630
410,0.39,3150
411,0.1,758
412,0.14,1226
413,0.15,1248
414,0.31,2758
415,0.45,4304
416,0.46,4530
417,0.14,1161
418,0.08,762
419,0.34,2423
420,0.38,3565
421,0.5,4373
422,0.14,1110
423,0.4,3563
424,0.1,866
425,0.15,1323
426,0.17,1233
427,0.31,2659
428,0.47,4560
429,0.45,4430
430,0.17,1252
431,0.1,768
432,0.33,2900
433,0.38,3612
434,0.48,4664
435,0.2,1983
436,0.62,6358
437,0.05,386
438,0.43,3628
439,0.49,4336
440,0.56,5689
441,0.43,4599
442,0.51,5599
443,0.04,412
444,0.41,3534
445,0.49,4422
446,0.52,5893
447,0.59,6730
448,0.57,5983
449,0.13,1190
450,0.57,5245
451,0.43,3939
452,0.77,7663
453,0.12,954
454,0.58,5821
455,0.14,1065
456,0.2,1831
457,0.09,706
458,0.33,2860
459,0.15,1437
460,0.11,933
461,0.37,3528
462,0.4,3806
463,0.67,6967
464,0.1,798
465,0.57,6025
466,0.1,941
467,0.24,1949
468,0.11,893
469,0.36,3274
470,0.17,1597
471,0.53,5049
472,0.82,8935
473,0.12,1083
474,0.62,6205
475,0.52,4801
476,0.56,4649
477,0.2,1765
478,0.45,4402
479,0.87,8882
480,0.12,985
481,0.58,6405
482,0.53,5028
483,0.13,889
484,0.49,4263
485,0.64,7869
486,1.05,15592
487,0.61,6480
488,0.71,7450
489,0.28,2466
490,1.03,13836
491,0.46,3932
492,0.58,5562
493,0.24,2312
494,0.63,6631
495,0.64,7516
496,1.25,19757
497,0.52,6413
498,0.66,7041
499,0.28,2397
500,1.12,14830
501,0.44,3811
502,0.6,5716
503,0.28,2490
504,0.61,6526
505,0.07,678
506,0.06,457
507,0.06,473
508,0.04,433
509,0.04,334
510,0.05,370
511,0.1,812
512,0.06,529
513,0.08,558
514,0.05,448
515,0.43,3790
516,0.18,1809
517,0.32,3259
518,0.07,608
519,0.17,1581
520,0.04,344
521,0.16,1459
522,0.19,1762
523,0.5,4012
524,0.35,3260
525,0.34,3172
526,0.55,6003
527,0.13,1051
528,0.35,3154
529,0.06,599
530,0.19,1463
531,0.17,1662
532,0.27,2078
533,0.19,1836
534,0.19,1761
535,0.15,1279
536,0.15,1367
537,0.17,1459
538,0.05,494
539,0.16,1612
540,0.45,4410
541,0.1,833
542,0.27,2381
543,0.22,2006
544,0.19,1773
545,0.08,833
546,0.07,637
547,0.17,1552
548,0.19,1410
549,0.25,2195
550,0.16,1449
551,0.08,718
552,0.04,325
553,0.18,1719
554,0.14,1125
555,0.12,983
556,0.35,3511
557,0.21,2007
558,0.26,2101
559,0.16,1365
560,0.25,2062
561,0.16,1288
562,0.4,3632
563,0.15,1553
564,0.26,2074
565,0.2,1943
566,0.86,8999
567,0.17,1757
568,0.16,1252
569,0.35,3003
570,0.17,1594
571,0.27,2488
572,0.24,2259
573,0.87,9157
574,0.15,1319
575,0.32,2754
576,0.02,154
577,0.08,695
578,0.16,1222
579,0.07,590
580,0.28,2082
581,0.17,1593
582,0.37,2937
583,0.11,779
584,0.08,731
585,0.1,801
586,0.2,1705
587,0.1,780
588,0.3,2267
589,0.25,2042
590,0.68,7203
591,0.19,1648
592,0.07,526
593,0.11,856
594,0.28,2522
595,0.21,1834
596,0.3,2263
597,0.07,609
598,0.07,684
599,0.14,953
600,0.03,315
601,0.06,472
602,0.07,594
603,0.53,4023
604,0.07,554
605,0.19,1508
606,0.22,1784
607,0.33,2785
608,0.18,1571
609,0.05,460
610,0.08,731
611,0.46,4132
612,0.56,5421
613,0.25,2023
614,0.16,1285
615,0.25,2271
616,0.21,1930
617,0.39,3255
618,0.02,162
619,0.05,493
620,0.16,1119
621,0.39,3133
622,0.18,1919
623,0.68,7349
624,0.05,341
625,0.43,3826
626,0.5,5060
627,0.57,6064
628,0.53,5669
629,0.53,5811
630,0.03,311
631,0.45,3971
632,0.52,4844
633,0.51,5464
634,0.55,6061
635,0.58,6402
636,0.13,1244
637,0.51,4666
638,0.38,3594
639,0.68,7142
640,0.15,1080
641,0.58,5756
642,0.13,983
643,0.28,2070
644,0.3,2485
645,0.13,999
646,0.13,1133
647,0.09,868
648,0.45,4012
649,0.31,2988
650,0.75,7377
651,0.1,797
652,0.54,5705
653,0.11,980
654,0.21,1957
655,0.28,2447
656,0.16,1336
657,0.53,5114
658,0.24,2345
659,0.67,7129
660,0.7,7751
661,1.19,18777
662,0.67,7519
663,0.66,6954
664,0.12,995
665,0.6,6166
666,0.57,5309
667,0.51,4891
668,0.22,1953
669,1.16,15176
670,0.4,3648
671,0.58,5236
672,0.29,2900
673,0.74,7741
674,0.53,5298
675,0.26,2422
676,0.83,7603
677,0.62,7451
678,1.21,18891
679,0.57,6735
680,0.71,7523
681,0.13,901
682,0.57,5761
683,0.53,4935
684,0.12,1247
685,0.49,3986
686,0.29,2272
687,1.12,16590
688,0.41,3595
689,0.6,5543
690,0.28,2592
691,0.65,6711
692,0.24,2478
693,0.04,347
694,0.35,4002
695,0.5,5330
696,0.18,1936
697,0.14,1384
698,0.03,269
699,0.19,1973
700,0.16,1408
701,0.1,825
702,0.07,520
703,0.05,424
704,0.19,1660
705,0.16,1277
706,0.1,783
707,0.17,1608
708,0.13,1345
709,0.21,2341
710,0.19,1945
711,0.1,773
712,0.14,1274
713,0.1,853
714,0.15,1363
715,0.05,379
716,0.1,820
717,0.06,481
718,0.11,960
719,0.12,1013
720,0.04,234
721,0.08,723
722,0.18,1700
723,0.05,534
724,0.08,775
725,0.13,1111
726,0.08,563
727,0.26,2187
728,0.09,591
729,0.07,503
730,0.17,1620
731,0.07,677
732,0.16,1389
733,0.07,592
734,0.06,586
735,0.07,735
736,0.13,1434
737,0.16,1656
738,0.06,440
739,0.05,464
740,1.29,13591
741,0.45,4182
742,0.86,7917
743,0.03,251
744,0.04,330
745,1.08,12241
746,0.52,4687
747,0.82,7881
748,1.9,30751
749,1.18,14064
750,1.12,14020
751,1.19,13028
752,1.46,24374
753,1.08,14798
754,1.24,19257
755,1.42,21667
756,0.48,4258
757,1.34,20792
758,1.09,13437
759,0.56,5792
760,1.14,15217
761,1.4,22031
762,0.45,4953
763,0.35,3581
764,5.83,110840
765,0.5,5725
766,1.1,16636
767,1.12,18653
768,0.52,6800
769,0.84,9815
770,0.52,5557
771,1.11,19310
772,0.52,6012
773,1.42,22875
774,6.44,128016
775,1.45,23934
776,0.77,8955
777,0.56,5587
778,0.69,7939
779,0.47,5008
780,0.73,7333
781,0.7,7152
782,1.58,28815
783,1.89,36975
784,2.58,50203
785,2.46,43931
786,0.01,79
787,3.99,78210
788,3.52,66096
789,3.66,78003
790,2.57,56196
791,1.97,41521
792,5.33,115839
793,1.57,26865
794,2.52,51254
795,2.26,44666
796,3.09,60656
797,2.63,49274
798,7.86,158087
799,0.89,9854
800,3.89,77384
801,11.96,220028
802,2.83,57210
803,6.05,121926
804,2.64,41198
805,3.73,70651
806,6.64,125636
807,30.81,541038
808,5.69,125245
809,7.34,158991
810,3.98,85179
811,8.67,192377
812,4.51,99674
813,4.42,99800
814,5.0,102871
815,11.58,242330
816,10.43,219053
817,27.17,504691
818,5.4,112943
819,16.62,286321
820,18.96,342086
821,0.01,84
822,0.01,49
823,15.44,281107
824,2.52,41536
825,1.45,19715
826,1.48,19394
827,0.03,271
828,1.68,32280
829,1.27,22000
830,1.19,14719
831,1.77,33367
832,1.85,32246
833,1.65,28894
834,1.32,18435
835,1.8,30407
836,1.66,30762
837,9.23,186021
838,7.47,146793
839,2.9,61116
840,3.05,62419
841,2.96,61549
842,3.47,73145
843,2.34,45354
844,2.05,37536
845,3.28,71505
846,4.47,98122
847,3.8,86872
848,6.38,148474
849,6.69,137823
850,5.54,113851
851,1.31,19205
852,3.51,70992
853,1.88,33925
854,12.37,237623
855,3.74,77900
856,2.61,52719
857,5.52,116857
858,3.41,71056
859,2.62,42168
860,10.77,208683
861,6.7,143573
862,5.88,128786
863,34.57,605276
864,6.84,153050
865,2.8,62252
866,2.96,62746
867,6.77,146325
868,4.32,95593
869,3.97,86802
870,3.09,65098
871,3.58,76347
872,0.02,89
873,6.47,139956
874,8.37,170791
875,1.33,18279
876,3.87,77267
877,2.99,60330
878,3.46,66828
879,2.95,63958
880,3.32,74193
881,4.81,106501
882,0.02,122
883,5.25,117295
884,4.25,93022
885,2.88,62472
886,1.31,19666
887,9.04,183786
888,2.0,35692
889,4.08,86447
890,6.92,147627
891,3.06,60795
892,1.26,19115
893,5.19,111567
894,4.82,110263
895,25.82,471178
896,6.77,147127
897,4.09,89546
898,0.02,74
899,4.95,92514
900,3.6,78462
901,15.31,302902
902,6.15,136124
903,2.88,57452
904,10.53,215591
905,6.95,149727
906,4.62,99535
907,4.66,100910
908,3.83,80357
909,3.94,82410
910,1.96,40945
911,4.39,95606
912,2.59,52969
913,1.64,31120
914,3.08,63695
915,2.47,49106
916,11.44,223697
917,3.62,75872
918,2.27,49543
919,4.4,97138
920,2.42,51225
921,1.97,38602
922,9.53,181739
923,2.53,51718
924,2.18,38011
925,1.69,27121
926,1.27,16245
927,1.68,23100
928,2.21,44211
929,1.95,35760
930,2.07,39502
931,1.5,25551
932,5.02,103542
933,1.99,32829
934,2.2,42738
935,1.95,32182
936,1.43,21234
937,2.19,34679
938,2.23,48252
939,3.35,69456
940,1.73,29598
941,1.38,21075
942,3.42,71327
943,1.91,34676
944,2.33,47906
945,2.06,35814
946,1.99,37490
947,1.3,19841
948,5.51,108540
949,7.34,150478
950,3.53,73369
951,1.78,34750
952,3.67,78301
953,2.54,56846
954,9.52,189526
955,6.23,121707
956,13.74,258133
957,16.53,303711
958,0.01,76
959,0.01,38
960,7.68,151613
961,1.75,39424
962,10.28,220179
963,6.13,131465
964,5.91,134062
965,10.85,221952
966,0.01,84
967,0.02,125
968,6.37,127524
969,2.06,43970
970,9.95,208332
971,1.02,16829
972,4.54,98539
973,7.04,160264
974,10.93,222365
975,3.36,78548
976,8.68,196054
977,11.06,235911
978,18.94,364363
979,10.24,216850
980,10.11,217919
981,2.8,65341
982,5.51,118220
983,11.59,244535
984,20.94,400783
985,12.96,265025
986,4.37,95090
987,8.39,183407
988,5.2,116765
989,5.43,120635
990,5.1,112465
991,5.8,126478
992,3.75,78202
993,3.28,70236
994,5.89,127970
995,2.76,65883
996,5.56,130396
997,6.23,132521
998,12.89,268367
999,8.83,191345
1000,10.89,232358
1001,9.56,204978
1002,20.35,415910
1003,11.6,254576
1004,18.1,372471
1005,33.83,581538
1006,46.31,803449
1007,22.35,453976
1008,10.56,233982
1009,6.25,135704
1010,7.14,156236
1011,7.83,165304
1012,3.36,71838
1013,1.94,37641
1014,5.06,106838
1015,2.22,40787
1016,2.46,52270
1017,4.97,109337
1018,1.2,13551
1019,2.32,39151
1020,1.73,31301
1021,3.37,69994
1022,3.06,61457
1023,4.11,81816
1024,2.7,56501
1025,4.91,106800
1026,2.63,57867
1027,4.59,102357
1028,1.19,18545
1029,3.73,82470
1030,1.41,19490
1031,1.87,36884
1032,3.28,71949
1033,1.39,20667
1034,1.83,34364
1035,4.19,87627
1036,6.11,141552
1037,1.58,31636
1038,2.21,47462
1039,7.05,153130
1040,1.13,18645
1041,1.42,23745
1042,18.91,362355
1043,16.77,332335
1044,4.76,103712
1045,1.96,41431
1046,1.14,16351
1047,3.96,89822
1048,1.09,15709
1049,1.2,15598
1050,1.23,19223
1051,3.24,74707
1052,2.21,44221
1053,3.02,60579
1054,2.52,57574
1055,2.55,58347
1056,1.71,27704
1057,2.11,42040
1058,3.35,63480
1059,1.5,21900
1060,1.23,18206
1061,1.87,38790
1062,1.34,19888
1063,3.12,64254
1064,2.01,31426
1065,1.11,11190
1066,2.0,37962
1067,2.27,43450
1068,1.87,28683
1069,2.18,34749
1070,4.38,82501
1071,6.86,154200
1072,4.41,101308
1073,3.52,74067
1074,2.79,58851
1075,1.76,30671
1076,3.92,90939
1077,3.04,63758
1078,3.75,87268
1079,6.42,136233
1080,2.92,56089
1081,2.81,51912
1082,3.0,61288
1083,9.21,194826
1084,2.47,48191
1085,11.87,243228
1086,0.01,57
1087,0.01,32
1088,0.01,52
1089,9.95,209371
1090,6.86,168454
1091,0.01,54
1092,8.9,198994
1093,8.01,168583
1094,8.35,173337
1095,10.07,202885
1096,7.9,174990
1097,6.7,148849
1098,8.38,180976
1099,10.15,213422
1100,4.77,104494
1101,5.87,124028
1102,1.57,25298
1103,4.96,108753
1104,2.07,33487
1105,5.57,105069
1106,3.37,68955
1107,3.3,66864
1108,5.2,117792
1109,0.01,42
1110,8.84,200926
1111,14.99,327280
1112,10.7,237151
1113,0.01,47
1114,10.4,228923
1115,7.35,162991
1116,4.13,89836
1117,2.1,39396
1118,2.54,45712
1119,6.54,135885
1120,3.11,63465
1121,3.61,69784
1122,9.09,177804
1123,9.44,209780
1124,9.89,199517
1125,9.82,190010
1126,7.26,138708
1127,7.34,146531
1128,0.01,14
1129,11.54,244599
1130,3.42,70494
1131,5.22,102387
1132,3.45,74306
1133,5.28,108647
1134,5.66,123323
1135,12.42,236163
1136,5.03,108898
1137,11.26,222199
1138,1.41,24319
1139,1.99,39869
1140,2.9,62234
1141,1.47,22405
1142,1.44,20199
1143,2.95,65279
1144,2.85,58081
1145,1.44,19644
1146,1.73,23893
1147,1.11,11310
1148,1.39,21696
1149,1.89,34044
1150,2.18,45080
1151,2.13,39501
1152,1.74,32286
1153,2.31,46736
1154,2.0,34056
1155,2.11,34653
1156,4.57,87366
1157,1.36,22213
1158,1.34,19606
1159,3.93,89727
1160,1.78,31924
1161,3.61,76692
1162,2.18,40687
1163,1.53,25704
1164,3.82,84885
1165,1.77,28067
1166,1.13,12012
1167,2.79,50012
1168,2.47,44674
1169,5.37,109930
1170,1.47,20540
1171,3.17,59654
1172,3.6,76756
1173,4.8,102394
1174,2.24,40614
1175,2.53,46649
1176,2.06,37567
1177,3.34,66342
1178,2.31,45592
1179,3.57,75460
1180,2.57,51553
1181,2.84,52353
1182,2.93,70003
1183,8.24,184221
1184,9.59,203816
1185,5.28,121028
1186,3.92,82059
1187,1.81,34922
1188,2.91,59083
1189,5.46,104001
1190,6.51,122346
1191,5.46,114224
1192,6.0,128052
1193,3.64,80810
1194,1.78,36982
1195,5.22,116067
1196,6.63,136518
1197,4.03,78358
1198,12.53,244284
1199,5.41,105131
1200,12.0,229647
1201,0.01,56
1202,9.78,207664
1203,0.01,70
1204,9.35,199429
1205,0.01,15
1206,5.02,110690
1207,8.3,177691
1208,0.01,30
1209,8.88,182958
1210,5.09,106784
1211,8.91,197066
1212,0.01,40
1213,0.02,121
1214,4.55,105011
1215,6.0,133041
1216,7.79,173905
1217,7.33,144309
1218,9.45,194444
1219,3.59,71368
1220,3.27,67885
1221,1.42,20844
1222,1.61,28646
1223,2.05,40452
1224,1.85,31683
1225,2.04,38180
1226,1.88,28455
1227,1.23,14142
1228,1.97,37759
1229,3.07,63533
1230,2.17,30823
1231,1.87,32943
1232,4.66,86632
1233,5.12,112538
1234,5.88,126583
1235,2.26,43686
1236,2.71,49782
1237,3.5,74573
1238,5.43,114567
1239,4.16,80734
1240,1.62,25455
1241,1.99,38086
1242,3.5,76687
1243,2.69,54290
1244,2.35,37181
1245,2.67,46526
1246,2.45,44828
1247,4.8,94718
1248,1.56,24304
1249,2.91,53331
1250,7.82,175827
1251,9.09,201673
1252,1.16,14212
1253,1.62,28167
1254,1.65,32074
1255,1.93,36888
1256,3.95,93529
1257,6.64,143822
1258,5.01,114198
1259,3.03,66711
1260,3.32,63026
1261,2.87,54385
1262,5.93,123240
1263,2.42,44376
1264,3.15,59459
1265,3.97,88558
1266,8.28,170533
1267,5.48,120786
1268,8.46,175816
1269,6.59,136329
1270,6.49,130164
1271,4.82,92395
1272,2.3,45181
1273,3.27,59937
1274,2.73,49182
1275,2.25,39138
1276,3.89,72322
1277,1.89,29927
1278,1.57,22072
1279,2.25,40369
1280,3.56,63648
1281,3.24,69084
1282,6.53,140951
1283,2.28,39383
1284,2.23,39214
1285,2.8,57183
1286,2.54,45224
1287,5.28,105991
1288,5.04,102366
1289,3.14,59225
1290,5.08,94070
1291,3.8,62302
1292,4.09,83217
1293,8.6,169163
1294,1.79,26466
1295,2.76,49144
1296,4.75,97443
1297,6.11,116921
1298,3.56,66993
1299,2.18,35371
1300,4.33,73110
1301,2.71,51275
1302,4.23,82586
1303,4.21,88475
1304,7.21,146324
1305,6.13,128962
1306,7.2,156629
1307,2.58,47979
1308,3.46,67835
1309,2.32,43734
1310,3.66,74353
1311,4.65,95721
1312,3.64,73233
1313,5.6,116024
1314,7.44,163708
1315,3.35,68782
1316,3.98,80486
1317,0.01,21
1318,6.69,135516
1319,4.08,80225
1320,1.7,30625
1321,8.35,174640
1322,3.07,57048
1323,1.87,29506
1324,3.37,64159
1325,3.06,50147
1326,2.64,42829
1327,1.38,17422
1328,3.29,58370
1329,1.21,16394
1330,2.85,55302
1331,6.31,114737
1332,2.1,33287
1333,1.01,10070
1334,2.64,48723
1335,1.49,18742
1336,1.29,12000
1337,2.49,41415
1338,1.45,22535
1339,2.96,53338
1340,2.33,39418
1341,1.44,15957
1342,3.57,63215
1343,2.16,39189
1344,3.63,72595
1345,1.46,20183
1346,3.46,62313
1347,1.42,21844
1348,6.79,129840
1349,7.02,129684
1350,1.93,33010
1351,1.37,21890
1352,2.24,40847
1353,1.61,21999
1354,1.38,15307
1355,2.58,47396
1356,3.54,67043
1357,2.99,55750
1358,3.4,57364
1359,1.66,26937
1360,4.12,87129
1361,0.02,45
1362,1.67,27120
1363,7.01,137408
1364,7.74,149342
1365,3.02,52735
1366,2.73,46795
1367,1.67,30757
1368,5.28,114041
1369,1.21,14677
1370,4.17,81322
1371,5.0,99180
1372,9.3,172982
1373,2.46,45189
1374,1.93,36434
1375,9.24,179865
1376,1.95,36358
1377,2.93,55483
1378,4.26,80297
1379,4.21,85605
1380,4.01,74242
1381,2.64,52627
1382,3.5,77148
1383,4.01,78574
1384,1.64,32718
1385,5.2,107006
1386,8.02,164595
1387,3.93,80058
1388,1.76,34872
1389,4.68,101827
1390,7.38,151079
1391,4.68,89810
1392,6.61,132025
1393,5.95,119828
1394,4.95,102442
1395,3.59,76442
1396,4.14,86966
1397,1.93,31968
1398,1.15,12473
1399,1.59,25998
1400,0.81,8339
1401,1.79,28900
1402,1.78,30363
1403,2.21,44943
1404,1.8,26073
1405,1.16,12068
1406,1.46,24464
1407,2.85,49462
1408,1.51,22145
1409,2.06,33038
1410,1.24,15801
1411,0.92,8432
1412,1.23,15918
1413,2.51,40006
1414,2.59,45994
1415,3.84,70522
1416,0.79,7233
1417,0.02,143
1418,1.35,15603
1419,2.24,35589
1420,7.53,144548
1421,3.11,58583
1422,1.25,15821
1423,1.02,9233
1424,1.39,20780
1425,1.59,26782
1426,3.5,65099
1427,0.67,6716
1428,3.33,62045
1429,0.44,3856
1430,1.28,15812
1431,2.22,35442
1432,0.35,3262
1433,1.35,15034
1434,0.16,1585
1435,1.25,13993
1436,1.65,25186
1437,2.04,26924
1438,6.25,112321
1439,1.29,18255
1440,2.32,43128
1441,1.3,17475
1442,1.38,16988
1443,1.58,22659
1444,1.58,22601
1445,1.19,11821
1446,1.78,28627
1447,3.03,55146
1448,1.48,21715
1449,1.4,16893
1450,0.35,3279
1451,1.39,19088
1452,1.26,13414
1453,3.06,57101
1454,1.97,33791
1455,1.66,24834
1456,3.62,71591
1457,1.21,11797
1458,2.8,48196
1459,1.78,28457
1460,1.52,23064
1461,1.55,22488
1462,3.28,61910
1463,1.96,29785
1464,4.17,81458
1465,1.65,23800
1466,3.42,63022
1467,3.35,66572
1468,2.48,43350
1469,4.0,80316
1470,2.78,56208
1471,2.0,35955
1472,3.33,62418
1473,1.56,24558
1474,0.53,5487
1475,2.27,40972
1476,1.48,21743
1477,1.67,28310
1478,2.54,46242
1479,2.3,40730
1480,1.84,27850
1481,3.27,56874
1482,1.87,28862
1483,1.13,11945
1484,2.11,31751
1485,1.48,23348
1486,1.65,28909
1487,2.19,44193
1488,1.05,12121
1489,3.36,64289
1490,1.35,20368
1491,1.34,19845
1492,1.73,26258
1493,1.04,12361
1494,1.29,19268
1495,1.29,18774
1496,1.84,28812
1497,1.84,32265
1498,4.02,67177
1499,0.65,5897
1500,1.45,18878
1501,2.39,40298
1502,2.58,47709
1503,1.22,15387
1504,2.52,47263
1505,1.23,19927
1506,1.62,27227
1507,2.49,42738
1508,7.66,154547
1509,1.51,19931
1510,0.6,5674
1511,1.76,22052
1512,3.3,57546
1513,1.48,19498
1514,1.27,13668
1515,1.21,14545
1516,0.65,5901
1517,1.1,14314
1518,2.49,43982
1519,1.39,20785
1520,4.34,84735
1521,1.24,12489
1522,4.14,74144
1523,1.55,22219
1524,0.54,5086
1525,1.45,18115
1526,0.19,1766
1527,0.66,6736
1528,0.9,7485
1529,4.21,74121
1530,0.84,8862
1531,1.41,16519
1532,0.02,121
1533,69.39,1173344
1534,7.08,147219
1535,27.38,515793
1536,19.66,398448
1537,20.35,384694
1538,25.43,461172
1539,0.02,167
1540,26.81,480820
1541,46.29,789084
1542,23.82,440611
1543,13.73,263830
1544,28.24,467973
1545,29.51,563916
1546,51.02,901385
1547,14.6,273796
1548,34.36,573837
1549,32.9,596735
1550,26.11,439871
1551,46.42,728444
1552,31.97,522164
1553,53.14,938342
1554,53.06,886231
1555,15.57,295915
1556,59.38,1041991
1557,50.84,882929
1558,12.53,242633
1559,36.44,708956
1560,14.16,274494
1561,50.01,870877
1562,8.79,169415
1563,7.62,155333
1564,22.63,464860
1565,36.31,648834
1566,24.96,432833
1567,84.9,1281300
1568,27.67,445418
1569,8.31,173030
1570,54.84,836302
1571,35.63,694781
1572,42.44,761357
1573,24.01,408600
1574,20.93,362323
1575,2.57,53266
1576,165.84,2462829
1577,0.02,153
1578,9.85,190637
1579,33.52,581356
1580,25.0,474849
1581,0.02,189
1582,7.13,143807
1583,36.63,660805
1584,23.3,463862
1585,40.63,750093
1586,15.98,310916
1587,16.7,317401
1588,6.5,130943
1589,9.35,171965
1590,43.02,818750
1591,12.58,253849
1592,6.84,150322
1593,15.22,310903
1594,15.83,306277
1595,6.18,131595
1596,9.65,188388
1597,6.47,135622
1598,13.06,265138
1599,11.9,229303
1600,7.5,156183
1601,20.08,365021
1602,12.28,229744
1603,8.41,176954
1604,6.52,139458
1605,9.18,193995
1606,8.78,198441
1607,10.64,218319
1608,2.75,50044
1609,3.38,57502
1610,5.93,123340
1611,5.96,124948
1612,5.66,117626
1613,2.59,49312
1614,5.21,108207
1615,12.79,223708
1616,9.97,202938
1617,13.61,259473
1618,33.26,617179
1619,12.15,254426
1620,41.04,670367
1621,7.48,156786
1622,6.89,142778
1623,6.76,143156
1624,5.57,115355
1625,3.34,73372
1626,10.57,210872
1627,5.57,113549
1628,83.51,1327539
1629,10.15,209637
1630,6.46,138693
1631,10.95,229147
1632,10.55,217868
1633,8.25,172515
1634,8.66,180419
1635,7.66,167406
1636,6.17,135979
1637,29.93,552496
1638,8.36,177455
1639,44.37,735258
1640,2.25,42361
1641,3.48,66456
1642,6.87,134394
1643,12.85,248190
1644,2.77,57741
1645,6.64,138032
1646,7.9,159274
1647,12.09,220814
1648,8.13,178034
1649,19.63,374581
1650,16.02,315398
1651,42.44,738342
1652,2.04,35609
1653,3.74,72847
1654,6.83,132993
1655,11.26,223801
1656,5.28,119653
1657,9.38,188892
1658,44.04,710826
1659,28.37,548029
1660,24.38,465049
1661,23.35,438465
1662,81.81,1339825
1663,0.02,49
1664,1.48,23779
1665,2.57,51716
1666,1.39,23732
1667,30.86,531007
1668,0.01,69
1669,1.94,32466
1670,3.15,62404
1671,14.65,306694
1672,0.01,87
1673,0.01,47
1674,0.01,71
1675,0.01,39
1676,24.61,424798
1677,12.84,263324
1678,20.47,417205
1679,19.49,389843
1680,16.8,330581
1681,25.52,477494
1682,12.93,253062
1683,36.87,657757
1684,8.46,175781
1685,23.54,464011
1686,10.22,192140
1687,13.28,268165
1688,24.89,464720
1689,32.93,599431
1690,17.43,336442
1691,7.29,154639
1692,12.35,253266
1693,5.7,121739
1694,11.55,246483
1695,18.53,378116
1696,32.51,586468
1697,0.02,55
1698,14.46,295192
1699,26.73,499357
1700,5.47,112798
1701,9.52,198300
1702,3.16,56334
1703,3.74,67966
1704,6.13,134392
1705,6.58,141495
1706,8.12,173674
1707,6.42,127652
1708,6.21,127755
1709,5.63,113804
1710,25.78,528536
1711,51.92,910760
1712,17.04,364299
1713,6.49,146473
1714,10.16,224002
1715,12.11,256092
1716,18.8,402806
1717,9.04,199534
1718,13.77,296306
1719,6.35,139720
1720,5.23,101441
1721,18.91,320219
1722,21.02,417744
1723,17.8,385841
1724,14.53,313127
1725,11.82,258912
1726,22.12,408635
1727,18.73,366824
1728,6.77,149071
1729,9.54,208500
1730,3.16,64029
1731,10.98,232988
1732,11.5,257490
1733,20.53,379925
1734,8.35,176762
1735,6.63,146444
1736,5.24,115206
1737,8.88,176605
1738,0.01,104
1739,12.48,253428
1740,10.86,232915
1741,41.33,770829
1742,12.98,275111
1743,17.77,352415
1744,21.28,447680
1745,13.09,276501
1746,18.71,402702
1747,4.11,84806
1748,8.31,168109
1749,10.92,241993
1750,6.52,146956
1751,24.66,482975
1752,7.78,165049
1753,3.38,71642
1754,3.22,66046
1755,5.64,120534
1756,2.96,57349
1757,5.99,113110
1758,11.47,247124
1759,8.83,194381
1760,4.15,87502
1761,14.99,318468
1762,4.15,92240
1763,7.6,168101
1764,13.88,276615
1765,2.48,55834
1766,43.2,753215
1767,14.33,287196
1768,18.35,372502
1769,4.78,103988
1770,3.08,67268
1771,7.8,174544
1772,4.8,102852
1773,7.2,145583
1774,2.87,61403
1775,7.88,170724
1776,7.68,154902
1777,5.01,100439
1778,2.91,51351
1779,0.01,101
1780,10.79,218329
1781,0.02,190
1782,0.02,138
1783,0.01,88
1784,0.01,60
1785,0.02,141
1786,7.72,162534
1787,5.74,112426
1788,7.07,137130
1789,9.09,194433
1790,13.43,275102
1791,0.7,7192
1792,24.74,463355
1793,4.69,95500
1794,9.03,167006
1795,2.25,44437
1796,8.88,195658
1797,12.76,264893
1798,9.38,190146
1799,6.21,135228
1800,1.35,21883
1801,7.82,161868
1802,11.71,233055
1803,8.96,181967
1804,6.08,131497
1805,5.6,124310
1806,9.08,184258
1807,13.77,295214
1808,19.69,418767
1809,5.98,127327
1810,9.12,190393
1811,11.25,244048
1812,5.2,97276
1813,22.95,444268
1814,23.72,449120
1815,4.86,103517
1816,2.37,42757
1817,2.66,44095
1818,2.49,47052
1819,4.74,94437
1820,7.81,165702
1821,7.18,154938
1822,5.01,102281
1823,2.62,53474
1824,5.56,108720
1825,14.96,306308
1826,3.21,64827
1827,17.3,379286
1828,9.16,205868
1829,4.23,81803
1830,6.39,127513
1831,3.06,57717
1832,17.34,353701
1833,2.69,51062
1834,5.72,108818
1835,3.05,59732
1836,2.94,48530
1837,3.26,69159
1838,5.88,120368
1839,6.14,134143
1840,6.82,139681
1841,14.74,317524
1842,3.52,60991
1843,3.32,62870
1844,3.64,70023
1845,9.5,194132
1846,2.57,43790
1847,1.11,13680
1848,3.87,65254
1849,7.29,146809
1850,6.5,124016
1851,3.34,62719
1852,12.08,209530
1853,1.69,22796
1854,1.43,15415
1855,3.15,47277
1856,4.65,85768
1857,2.12,33059
1858,12.46,205164
1859,4.81,84124
1860,9.05,185684
1861,5.08,96850
1862,4.42,81183
1863,5.8,123079
1864,16.09,310047
1865,4.04,76411
1866,6.03,127654
1867,5.1,102444
1868,12.2,236677
1869,4.42,77082
1870,4.04,74773
1871,14.44,256203
1872,2.4,39860
1873,9.39,159766
1874,4.03,79693
1875,8.86,148781
1876,2.08,33916
1877,7.08,120458
1878,15.33,305325
1879,19.84,379065
1880,8.6,161601
1881,5.54,111674
1882,5.38,105552
1883,25.96,438760
1884,3.5,72217
1885,2.78,57062
1886,3.12,66348
1887,6.38,126758
1888,5.46,126924
1889,9.23,210476
1890,10.74,238185
1891,6.57,132437
1892,19.68,392104
1893,0.02,149
1894,0.02,95
1895,3.39,71476
1896,16.87,338057
1897,3.44,71278
1898,7.03,160667
1899,13.01,281240
1900,1.46,20228
1901,1.8,27124
1902,2.02,38171
1903,4.4,87401
1904,5.48,118225
1905,9.54,193810
1906,11.73,259986
1907,11.0,241145
1908,26.1,505814
1909,8.48,173224
1910,4.68,81229
1911,5.02,97538
1912,15.51,274329
1913,1.83,29252
1914,1.43,18076
1915,2.77,42906
1916,4.48,87997
1917,3.97,72964
1918,11.67,196437
1919,9.56,197506
1920,7.24,155617
1921,6.06,137552
1922,20.85,390257
1923,4.95,96254
1924,20.02,346191
1925,14.81,293864
1926,16.4,299450
1927,10.7,195302
1928,43.83,740777
1929,2.58,53995
1930,1.56,26861
1931,2.01,35235
1932,3.27,65904
1933,2.37,45053
1934,4.76,85299
1935,5.16,122700
1936,1.68,32514
1937,8.84,203884
1938,3.36,70196
1939,5.54,109780
1940,5.91,133960
1941,2.06,41765
1942,3.83,67447
1943,9.02,185230
1944,11.45,233736
1945,0.02,111
1946,0.02,170
1947,8.15,166469
1948,1.77,33821
1949,3.51,74130
1950,7.33,160303
1951,3.83,83906
1952,5.18,117732
1953,4.37,98483
1954,3.79,77602
1955,7.82,173483
1956,1.48,22718
1957,1.51,22647
1958,2.32,44345
1959,1.82,32690
1960,3.59,65391
1961,3.25,66879
1962,3.62,77719
1963,2.62,53407
1964,5.68,112276
1965,5.6,133053
1966,3.95,91487
1967,6.76,146174
1968,5.27,120585
1969,5.0,112835
1970,4.82,100006
1971,13.57,249578
1972,2.63,47580
1973,3.1,67074
1974,4.44,88678
1975,1.14,14590
1976,1.59,22830
1977,2.96,49577
1978,4.2,82939
1979,3.61,67757
1980,9.62,168752
1981,1.86,27263
1982,1.64,21288
1983,2.82,41347
1984,1.87,28469
1985,1.49,24449
1986,3.29,57854
1987,3.73,68500
1988,3.07,50875
1989,10.23,175233
1990,3.6,76215
1991,5.57,110124
1992,1.53,22145
1993,1.75,30853
1994,3.77,69543
1995,2.55,53814
1996,1.93,39921
1997,4.11,78856
1998,3.85,84197
1999,4.65,101659
2000,11.49,228786
2001,2.61,47983
2002,5.89,108789
2003,2.96,45282
2004,3.28,65313
2005,9.48,174948
2006,5.14,104518
2007,2.59,52802
2008,12.39,242005
2009,3.75,72550
2010,8.03,154150
2011,11.32,200766
2012,54.09,903013
