index,time,conflicts
0,29.54,433971
1,64.76,927415
2,37.53,531784
3,85.86,1193565
4,33.12,459875
5,77.11,1055877
6,55.43,769150
7,66.28,972046
8,26.08,384104
9,63.66,909076
10,46.3,657763
11,84.12,1212488
12,31.21,449498
13,79.16,1066459
14,51.31,730142
15,22.74,382603
16,56.64,837205
17,73.47,1054232
18,76.83,1014180
19,132.66,1801093
20,78.71,1021770
21,105.78,1430649
22,93.54,1227088
23,108.44,1466335
24,67.68,916610
25,96.17,1325653
26,94.9,1234900
27,149.41,1908890
28,77.89,1036193
29,120.77,1652192
30,90.19,1233722
31,45.66,746164
32,37.28,525924
33,75.13,996454
34,45.14,622876
35,115.05,1534138
36,43.1,586077
37,119.24,1481360
38,61.24,823586
39,88.14,1168501
40,44.86,584811
41,84.42,1126500
42,60.9,823767
43,97.76,1311761
44,44.9,619882
45,107.78,1400462
46,65.11,879838
47,22.09,362307
48,98.75,1390786
49,135.79,1856875
50,125.71,1589664
51,125.76,1664111
52,114.08,1477217
53,200.72,2475683
54,138.18,1759640
55,130.85,1775632
56,91.68,1248450
57,159.46,2052237
58,151.18,1863656
59,150.46,1982718
60,105.78,1363978
61,146.66,1905322
62,134.25,1718436
63,50.58,803384
64,35.78,505638
65,73.46,994680
66,39.58,526430
67,89.71,1151418
68,35.37,477269
69,93.37,1195527
70,60.27,805206
71,71.19,993380
72,35.85,502501
73,97.37,1244968
74,53.38,708730
75,107.55,1417434
76,39.06,520986
77,96.96,1239439
78,57.06,760344
79,22.49,367969
80,85.62,1162528
81,105.02,1436028
82,100.51,1254579
83,160.82,2087383
84,94.52,1225279
85,106.42,1438399
86,102.36,1337479
87,158.75,2029314
88,101.43,1328312
89,128.49,1710842
90,106.66,1345627
91,162.03,2118349
92,103.55,1312686
93,136.72,1702574
94,111.63,1459390
95,56.47,870054
96,52.03,719734
97,89.32,1189921
98,62.54,881276
99,131.42,1716006
100,55.75,764098
101,124.07,1554313
102,64.15,860296
103,86.79,1224306
104,53.68,705700
105,101.92,1330560
106,65.56,873964
107,115.82,1542049
108,53.46,722655
109,119.49,1505185
110,67.46,916569
111,33.66,528852
112,58.19,852987
113,115.64,1641483
114,84.05,1134255
115,137.67,1893491
116,81.41,1110526
117,144.94,1908771
118,106.4,1426594
119,109.41,1562443
120,79.73,1125409
121,125.93,1705665
122,98.06,1306709
123,135.22,1853133
124,68.34,944672
125,146.28,1957236
126,103.47,1457560
127,40.82,662401
128,28.5,416935
129,71.55,992584
130,43.59,595674
131,90.32,1218285
132,35.28,475057
133,95.03,1227867
134,53.34,705797
135,63.74,951730
136,33.56,478324
137,82.89,1149861
138,49.59,653751
139,83.95,1182459
140,35.71,478957
141,93.45,1253679
142,56.99,787550
143,20.66,350375
144,73.19,1027833
145,93.5,1295398
146,94.59,1247420
147,174.92,2203996
148,79.89,1079420
149,143.75,1792837
150,109.18,1402359
151,128.29,1741901
152,81.25,1078592
153,102.43,1463869
154,107.57,1357883
155,176.85,2253207
156,83.62,1106126
157,145.81,1850191
158,102.96,1341526
159,43.02,726554
160,50.0,662726
161,85.69,1073207
162,48.32,662031
163,109.46,1420926
164,51.06,660463
165,116.93,1409324
166,51.28,712230
167,95.16,1304812
168,55.29,736399
169,119.83,1528404
170,57.66,796014
171,123.24,1642106
172,51.51,716333
173,110.27,1382285
174,70.87,933165
175,34.23,560220
176,87.29,1226647
177,132.12,1797964
178,112.61,1486774
179,159.02,2096039
180,101.26,1297267
181,182.08,2415599
182,141.77,1872026
183,125.15,1701067
184,104.03,1387181
185,178.57,2253187
186,123.34,1605620
187,144.93,1896459
188,110.31,1422656
189,186.01,2394011
190,134.42,1774190
191,63.12,979110
192,30.05,426498
193,61.71,823759
194,41.34,573100
195,116.09,1505571
196,36.35,501218
197,96.52,1225304
198,51.84,695511
199,70.17,981550
200,34.34,461966
201,90.92,1190284
202,51.99,696967
203,106.39,1397807
204,39.95,559171
205,97.78,1274826
206,65.57,878264
207,22.18,386772
208,75.2,1098457
209,130.09,1761407
210,109.33,1400391
211,153.9,1999798
212,100.95,1331822
213,125.62,1617665
214,127.96,1588402
215,142.6,1987469
216,107.34,1401475
217,141.36,1843270
218,126.78,1539478
219,171.75,2182429
220,94.47,1206643
221,115.15,1600367
222,106.2,1417108
223,55.74,857622
224,49.83,744883
225,82.76,1174126
226,61.72,858862
227,120.57,1582745
228,59.56,823692
229,124.58,1607535
230,67.37,908205
231,94.78,1350710
232,54.15,745481
233,96.85,1246428
234,62.9,881527
235,134.17,1737107
236,58.16,833997
237,119.28,1517905
238,53.16,804704
239,33.93,578473
240,18.26,330956
241,37.03,643724
242,26.04,432167
243,62.61,1024868
244,19.84,327242
245,59.39,942889
246,34.93,562372
247,43.47,740360
248,17.77,309184
249,57.5,911855
250,32.47,520883
251,55.29,886811
252,24.21,387455
253,57.03,912396
254,30.62,527757
255,36.3,617297
256,47.95,716029
257,68.38,976078
258,77.25,1038506
259,121.32,1689614
260,72.37,985646
261,104.62,1432820
262,84.9,1149227
263,99.53,1403482
264,55.59,767717
265,97.84,1375743
266,91.08,1161543
267,162.09,2241891
268,62.16,844196
269,125.53,1645330
270,72.35,1033509
271,44.09,712983
272,61.07,860230
273,61.33,915521
274,80.85,1065101
275,110.37,1601596
276,67.01,933124
277,94.56,1328668
278,78.65,1083670
279,106.23,1478587
280,59.15,835006
281,91.22,1300317
282,76.09,970474
283,123.65,1674030
284,71.98,971372
285,118.83,1665578
286,79.03,1064340
287,36.53,603520
288,80.14,1075075
289,78.28,1065540
290,70.89,971818
291,165.97,2053372
292,73.25,959951
293,125.09,1637738
294,87.4,1128469
295,117.62,1591777
296,79.55,1042986
297,120.5,1491316
298,81.17,1058548
299,147.21,1908073
300,68.88,863966
301,146.46,1813840
302,76.77,1036358
303,46.6,748290
304,127.24,1747818
305,123.98,1775644
306,179.24,2214156
307,157.47,2053778
308,149.19,1967653
309,206.01,2544294
310,158.5,1986526
311,146.63,2103000
312,182.69,2303356
313,174.71,2225301
314,156.79,1949158
315,161.77,2102037
316,149.15,1843466
317,166.76,2238367
318,151.35,1955982
319,73.43,1122705
320,72.7,986233
321,73.45,992391
322,90.88,1122915
323,171.98,2155020
324,55.8,746121
325,120.96,1524761
326,87.68,1169381
327,120.19,1601631
328,65.02,875535
329,118.08,1454468
330,83.98,1065378
331,173.22,2162938
332,64.3,854578
333,143.78,1855965
334,72.1,994570
335,42.35,672041
336,115.75,1543983
337,114.31,1540093
338,123.06,1590335
339,203.89,2562193
340,116.46,1504678
341,130.99,1758133
342,158.05,1904598
343,150.85,2049559
344,111.73,1535436
345,125.16,1672843
346,146.66,1756065
347,194.14,2537408
348,114.65,1468345
349,149.68,1968283
350,125.98,1619224
351,56.4,916052
352,87.1,1152050
353,77.45,1067205
354,83.2,1098733
355,182.52,2347065
356,95.27,1212595
357,154.36,1831087
358,79.16,1050369
359,142.49,1830319
360,99.6,1263182
361,130.58,1621141
362,92.8,1170843
363,153.44,1941420
364,92.85,1165495
365,190.31,2385582
366,80.67,1052588
367,52.76,843206
368,111.23,1534187
369,87.97,1280048
370,114.06,1514066
371,149.86,1961991
372,115.35,1617904
373,149.73,1952608
374,135.67,1721275
375,138.16,1814439
376,113.37,1563950
377,144.83,1949528
378,126.18,1578500
379,154.28,2131560
380,108.25,1463655
381,165.04,2192431
382,117.5,1603441
383,61.41,969473
384,60.07,837131
385,55.71,840115
386,81.66,1053742
387,144.12,1950039
388,73.24,932134
389,134.34,1782967
390,95.1,1215318
391,124.43,1695793
392,58.19,785034
393,109.2,1441280
394,97.8,1252115
395,147.35,1991911
396,78.69,1042034
397,132.45,1736083
398,90.91,1231948
399,43.89,733817
400,103.84,1382729
401,91.89,1253671
402,106.78,1398914
403,164.81,2164753
404,99.55,1318725
405,133.45,1788084
406,122.2,1544861
407,133.35,1832517
408,100.74,1329346
409,90.58,1254310
410,121.56,1499709
411,173.14,2354029
412,100.91,1255128
413,133.12,1792676
414,98.54,1296334
415,57.35,921975
416,102.98,1334052
417,104.57,1362412
418,88.42,1100733
419,167.05,2024996
420,104.59,1290354
421,160.96,1936586
422,95.98,1256383
423,132.66,1667815
424,83.3,1058409
425,116.45,1436726
426,83.62,1094457
427,196.45,2504294
428,89.62,1142677
429,165.83,1975764
430,105.7,1363754
431,64.9,956578
432,123.48,1726573
433,122.87,1786161
434,149.2,2019898
435,163.51,2208855
436,122.08,1626947
437,210.37,2619448
438,183.57,2367847
439,148.16,2042260
440,127.92,1789934
441,145.68,2015239
442,181.23,2158986
443,161.75,2243162
444,155.27,1951701
445,163.09,2229744
446,138.59,1871408
447,79.16,1228463
448,62.1,861887
449,75.18,1031509
450,76.28,1000997
451,145.7,1825688
452,76.9,1032336
453,124.92,1587501
454,91.44,1167137
455,133.34,1781488
456,70.89,957580
457,111.75,1418496
458,95.71,1211885
459,145.69,1851520
460,64.83,876286
461,149.48,1857042
462,73.54,1019297
463,45.44,738239
464,119.05,1583604
465,117.85,1609078
466,124.23,1608331
467,177.3,2355184
468,116.67,1494757
469,146.23,1886934
470,152.61,1866394
471,157.68,2081721
472,113.23,1510128
473,156.94,1994155
474,159.01,1968464
475,199.18,2382359
476,136.85,1691683
477,135.08,1944500
478,145.06,1859214
479,77.66,1189050
480,76.31,1073069
481,70.92,984238
482,85.38,1089084
483,161.83,2007254
484,88.38,1165075
485,158.14,1970330
486,90.04,1176069
487,135.36,1786765
488,83.21,1070351
489,101.34,1360712
490,85.19,1091635
491,136.37,1774152
492,72.16,1003440
493,128.41,1726932
494,73.55,1034987
495,46.36,743224
496,39.81,678196
497,38.29,645132
498,45.63,732663
499,91.19,1413752
500,36.05,600003
501,73.11,1132313
502,46.73,773750
503,74.83,1185197
504,34.25,600658
505,47.75,746849
506,54.15,843453
507,84.06,1367822
508,35.73,593726
509,76.25,1135457
510,51.34,825021
511,54.49,915362
512,33.45,478780
513,87.37,1158167
514,36.89,542989
515,117.12,1480611
516,39.43,549063
517,107.61,1361051
518,53.93,744375
519,85.68,1165727
520,46.28,623216
521,105.97,1354802
522,52.88,712595
523,109.58,1467551
524,41.92,560154
525,106.97,1353129
526,77.62,1049665
527,28.09,467397
528,81.05,1046659
529,76.04,1042737
530,72.01,974307
531,167.13,2161241
532,80.67,1034626
533,127.88,1579840
534,92.17,1186016
535,120.61,1586960
536,76.94,1011238
537,103.93,1335030
538,80.76,1052472
539,151.66,1958786
540,81.22,1018753
541,130.43,1631950
542,89.15,1183351
543,58.91,932121
544,32.97,478641
545,74.49,1026220
546,36.39,530257
547,109.63,1374980
548,39.78,546215
549,87.42,1197454
550,70.61,936123
551,77.79,1078069
552,41.07,571115
553,86.14,1128802
554,48.39,645640
555,109.38,1446792
556,42.88,572266
557,87.07,1134546
558,63.59,873982
559,24.75,411421
560,111.72,1459238
561,173.71,2198758
562,107.94,1394034
563,134.67,1813286
564,135.26,1653889
565,193.73,2426436
566,139.15,1783152
567,148.43,1830312
568,114.87,1514406
569,192.28,2346714
570,107.08,1393578
571,176.7,2220268
572,132.62,1649070
573,164.0,2109483
574,120.86,1562794
575,76.48,1131401
576,42.91,561774
577,85.29,1103921
578,43.68,580236
579,128.12,1544246
580,42.61,567152
581,110.56,1312898
582,63.82,840938
583,85.79,1158265
584,39.47,524153
585,122.8,1486576
586,57.45,729525
587,115.7,1467506
588,44.71,584420
589,106.66,1330270
590,68.14,903980
591,28.69,458048
592,95.59,1226770
593,126.69,1547235
594,99.44,1300403
595,194.21,2377016
596,118.1,1412912
597,126.75,1581188
598,132.13,1648566
599,158.95,1984830
600,98.02,1211862
601,141.19,1780330
602,128.1,1569246
603,185.15,2252390
604,93.19,1201121
605,151.48,1823040
606,118.42,1511657
607,64.77,935275
608,50.91,695581
609,96.6,1234983
610,60.46,842939
611,148.1,1955465
612,68.61,867340
613,133.42,1583022
614,59.17,816758
615,95.25,1264858
616,62.54,826171
617,106.57,1356225
618,58.14,774503
619,137.09,1760279
620,62.26,812455
621,122.43,1497618
622,79.19,1012096
623,35.27,583654
624,73.36,1025597
625,112.67,1517899
626,75.53,1065141
627,143.82,1852276
628,83.94,1116183
629,162.45,2089495
630,96.62,1273750
631,119.64,1571840
632,94.68,1267473
633,141.71,1846086
634,101.51,1347625
635,117.85,1517684
636,97.67,1251804
637,161.39,1903541
638,108.01,1485694
639,51.21,783639
640,36.75,495333
641,87.79,1111900
642,42.33,584246
643,127.37,1616268
644,44.9,590939
645,123.76,1523470
646,56.91,755955
647,88.07,1172042
648,40.4,540675
649,96.24,1247158
650,54.26,696265
651,123.79,1610077
652,42.53,569258
653,122.28,1490030
654,64.43,849622
655,24.97,414209
656,90.54,1205469
657,106.19,1319673
658,97.63,1255173
659,190.0,2254704
660,98.2,1204440
661,129.16,1702435
662,119.85,1439110
663,150.0,1896067
664,104.98,1318283
665,122.27,1509332
666,106.94,1369562
667,178.33,2216159
668,93.92,1187057
669,156.32,1908402
670,118.09,1506301
671,53.0,790775
672,59.0,766956
673,88.63,1134341
674,46.51,641658
675,122.59,1555389
676,51.44,662539
677,125.18,1502598
678,69.13,942358
679,84.26,1182753
680,52.06,700849
681,108.88,1342229
682,52.17,696242
683,132.2,1704034
684,56.63,746335
685,123.5,1543336
686,63.41,865613
687,31.46,507395
688,111.91,1448030
689,135.87,1810923
690,110.29,1452912
691,161.15,2029110
692,127.07,1583165
693,200.85,2518215
694,142.29,1824263
695,137.9,1768978
696,117.72,1569620
697,169.07,2133165
698,129.38,1620453
699,154.61,2055484
700,119.87,1532191
701,172.98,2143319
702,141.62,1834284
703,75.24,1090613
704,40.4,545440
705,83.84,1064990
706,41.94,567178
707,132.36,1618725
708,38.43,495587
709,113.84,1379140
710,60.74,795216
711,85.15,1116267
712,40.42,537681
713,99.11,1228906
714,52.32,664024
715,117.29,1479402
716,42.0,557852
717,109.92,1354409
718,63.1,860198
719,31.09,478447
720,90.35,1192927
721,139.98,1748201
722,99.53,1290921
723,165.07,2025116
724,123.76,1496840
725,159.52,1995280
726,129.15,1551342
727,162.14,1976066
728,124.51,1515999
729,175.63,2165044
730,124.81,1557534
731,197.99,2359643
732,115.16,1396642
733,119.13,1502941
734,121.85,1542793
735,69.83,1039707
736,56.07,782480
737,92.45,1232099
738,58.5,832958
739,128.22,1641265
740,62.93,813236
741,128.11,1571964
742,81.09,1079815
743,107.24,1432382
744,61.62,834310
745,123.37,1568704
746,69.66,939818
747,141.99,1865786
748,58.47,813847
749,110.54,1445059
750,60.2,845492
751,42.05,667321
752,27.8,456019
753,47.0,734371
754,24.07,403965
755,69.73,1033487
756,28.38,469686
757,63.01,957948
758,43.3,688221
759,52.76,833298
760,27.32,441226
761,69.06,996027
762,31.36,512071
763,70.88,1055029
764,26.44,430728
765,68.55,1002985
766,37.54,633154
767,50.55,808770
768,69.36,989610
769,112.43,1536098
770,94.88,1275168
771,112.53,1509516
772,95.68,1254482
773,147.75,1914879
774,121.75,1677072
775,147.2,1911936
776,96.96,1281762
777,147.55,1974358
778,109.94,1443123
779,139.88,1828610
780,99.69,1298122
781,131.11,1694240
782,108.38,1462079
783,66.65,1010228
784,112.63,1534187
785,112.12,1564672
786,149.86,1951984
787,151.69,1986664
788,125.32,1593423
789,183.12,2360425
790,168.72,2098572
791,166.56,2220909
792,144.76,1897086
793,149.54,1964217
794,190.03,2287695
795,194.59,2551345
796,118.97,1603181
797,147.15,2079774
798,164.87,2029813
799,79.03,1227550
800,119.53,1533160
801,136.7,1809668
802,89.62,1211844
803,134.34,1814653
804,117.14,1465359
805,195.94,2355168
806,112.76,1472731
807,158.78,2171630
808,113.41,1448019
809,145.11,1860970
810,100.92,1339803
811,174.71,2147208
812,120.96,1517257
813,157.93,1970703
814,121.63,1626115
815,78.42,1179505
816,102.81,1398658
817,139.33,1883522
818,113.14,1500908
819,100.8,1360211
820,131.08,1685980
821,154.46,1958728
822,128.55,1613701
823,129.59,1793871
824,116.48,1515586
825,187.82,2351627
826,144.77,1830644
827,152.45,2022202
828,124.7,1560359
829,175.33,2202155
830,124.87,1685554
831,59.2,910351
832,95.46,1274127
833,139.78,1847271
834,106.03,1360146
835,122.55,1563407
836,85.08,1112588
837,169.63,2055116
838,126.68,1573878
839,167.54,2050830
840,98.77,1280625
841,187.75,2430694
842,142.75,1699084
843,169.97,2290424
844,105.03,1348267
845,128.5,1634597
846,120.27,1589843
847,71.67,1059232
848,142.21,1862288
849,167.74,2137914
850,167.79,2003313
851,157.25,2104923
852,178.74,2176398
853,156.95,2152202
854,198.7,2345268
855,192.42,2452641
856,163.79,2153669
857,179.61,2251660
858,188.43,2325302
859,186.91,2440692
860,170.05,2237811
861,137.96,1861787
862,169.16,2178465
863,77.13,1160904
864,118.71,1533682
865,164.08,2097702
866,130.16,1625603
867,156.49,2114438
868,130.14,1654315
869,240.23,3055832
870,112.27,1486307
871,178.44,2236875
872,141.91,1760457
873,183.33,2329530
874,142.36,1773363
875,209.34,2554221
876,126.36,1591795
877,167.48,2012982
878,129.43,1709443
879,99.5,1413256
880,121.71,1696318
881,173.95,2299998
882,148.9,1921779
883,124.47,1739894
884,137.88,1802231
885,236.74,3002914
886,166.69,2112625
887,113.86,1609943
888,122.75,1666021
889,191.73,2437234
890,158.3,1925049
891,106.06,1486353
892,139.89,1844637
893,161.87,2193221
894,158.83,2153676
895,68.37,1097981
896,93.32,1230688
897,119.98,1612559
898,94.74,1236763
899,133.09,1720869
900,103.82,1361833
901,177.22,2242689
902,139.16,1698134
903,148.65,2017102
904,86.07,1159861
905,151.28,1987813
906,147.48,1799366
907,172.63,2355711
908,111.24,1414674
909,148.81,1900574
910,130.35,1719234
911,74.52,1105841
912,155.04,2020973
913,175.56,2311333
914,168.85,2037539
915,178.07,2379815
916,170.79,2121530
917,183.05,2365567
918,175.05,2074301
919,178.65,2335245
920,170.27,2314622
921,155.42,2056247
922,219.06,2752177
923,205.32,2633495
924,176.77,2154146
925,180.73,2437350
926,201.53,2413177
927,88.87,1277564
928,117.68,1566079
929,181.9,2259056
930,118.73,1525406
931,141.98,1792858
932,126.57,1488470
933,202.13,2404812
934,120.84,1588975
935,179.09,2183258
936,119.16,1496676
937,231.42,2652945
938,115.4,1483373
939,207.74,2545204
940,113.09,1427582
941,158.99,1946064
942,131.55,1656113
943,90.19,1292645
944,148.41,1994333
945,182.23,2363104
946,167.49,2050836
947,125.02,1617452
948,170.24,2128815
949,244.89,3130284
950,170.27,2089547
951,163.1,2148098
952,166.97,2192150
953,200.25,2595826
954,193.49,2422981
955,122.51,1657002
956,174.35,2168305
957,186.1,2378550
958,193.53,2342647
959,76.79,1206106
960,106.08,1388456
961,156.62,2016429
962,130.46,1595857
963,127.56,1698555
964,109.2,1423806
965,154.7,1949684
966,136.06,1671681
967,156.26,1894084
968,83.64,1073367
969,161.14,2000970
970,138.3,1693203
971,162.12,2050637
972,77.73,1052503
973,152.69,1934945
974,128.44,1646997
975,79.2,1115086
976,132.86,1695008
977,143.39,1903836
978,161.95,2074733
979,115.39,1595996
980,141.88,1764927
981,161.17,2018269
982,169.03,2093678
983,150.64,1958188
984,140.82,1769394
985,206.85,2714492
986,207.56,2690651
987,177.93,2259213
988,148.45,1807968
989,130.26,1733518
990,156.48,2023340
991,70.16,1060463
992,120.64,1641311
993,143.05,1845311
994,125.96,1565404
995,149.75,2048195
996,116.46,1531810
997,220.67,2808060
998,132.79,1707543
999,169.11,2171919
1000,127.49,1677185
1001,175.18,2209279
1002,146.16,1828620
1003,169.32,2194424
1004,127.28,1669536
1005,181.66,2269611
1006,113.13,1515884
1007,78.53,1168548
1008,50.6,818400
1009,71.12,1103624
1010,63.18,928817
1011,54.8,874893
1012,61.86,903736
1013,89.08,1308614
1014,77.13,1126434
1015,66.81,1053686
1016,71.41,1078469
1017,89.84,1368350
1018,77.72,1114222
1019,58.86,939063
1020,72.94,1125462
1021,71.1,1078398
1022,83.9,1330165
1023,78.03,1211830
1024,30.1,434274
1025,64.1,878737
1026,48.52,644665
1027,97.23,1255562
1028,33.01,450050
1029,99.55,1245087
1030,60.21,809064
1031,83.4,1135971
1032,30.6,432191
1033,80.04,1045262
1034,50.62,673189
1035,110.5,1450551
1036,38.9,534841
1037,92.28,1177756
1038,50.87,717115
1039,23.6,394771
1040,65.74,878926
1041,76.57,1040248
1042,82.98,1090687
1043,160.07,1954958
1044,65.24,897900
1045,128.67,1651504
1046,96.32,1194934
1047,132.5,1669922
1048,66.34,890493
1049,99.91,1276294
1050,87.46,1103875
1051,153.86,1943571
1052,73.23,949096
1053,137.0,1717145
1054,79.58,1053658
1055,43.65,671753
1056,43.15,570062
1057,86.21,1095533
1058,43.22,587979
1059,115.04,1423384
1060,43.59,562702
1061,110.75,1312045
1062,61.7,793730
1063,84.34,1136486
1064,41.51,561346
1065,91.89,1122591
1066,52.45,687042
1067,122.74,1530872
1068,41.54,559563
1069,108.74,1338889
1070,67.81,886844
1071,24.53,384030
1072,99.73,1312729
1073,151.84,1871535
1074,122.77,1545104
1075,146.17,1833692
1076,113.15,1385945
1077,206.02,2506515
1078,156.38,1874700
1079,164.58,2031755
1080,116.79,1400940
1081,172.92,2162464
1082,127.57,1549194
1083,159.16,2023218
1084,106.43,1327173
1085,161.94,1993532
1086,131.37,1685115
1087,60.81,857647
1088,31.21,426537
1089,70.9,963664
1090,43.56,589648
1091,91.1,1204257
1092,31.28,425680
1093,86.61,1129244
1094,54.96,706586
1095,79.47,1082020
1096,32.23,446025
1097,73.59,953017
1098,59.97,756981
1099,100.68,1338656
1100,32.92,460547
1101,90.9,1158336
1102,52.44,732422
1103,21.61,374605
1104,107.15,1352017
1105,134.04,1690706
1106,108.7,1343468
1107,191.12,2367550
1108,83.92,1093504
1109,113.19,1482754
1110,123.32,1475978
1111,151.65,1923117
1112,95.69,1210626
1113,126.19,1551508
1114,130.02,1456317
1115,194.79,2320298
1116,94.06,1176383
1117,165.9,2037831
1118,121.31,1501181
1119,55.38,822239
1120,69.8,903513
1121,100.31,1241742
1122,66.48,853198
1123,133.99,1625483
1124,55.91,749744
1125,117.92,1398551
1126,61.7,827718
1127,99.9,1377654
1128,48.23,629079
1129,116.05,1405977
1130,66.26,825442
1131,136.94,1720860
1132,59.04,769573
1133,121.89,1494597
1134,75.26,957933
1135,32.69,517121
1136,80.59,1101102
1137,108.39,1473904
1138,97.85,1299640
1139,138.33,1811970
1140,62.87,866802
1141,158.27,2015169
1142,97.62,1238114
1143,112.07,1487803
1144,69.82,958395
1145,131.36,1736482
1146,108.3,1370178
1147,123.21,1680469
1148,73.55,1025122
1149,156.35,1960135
1150,94.16,1258993
1151,49.08,772385
1152,36.42,494881
1153,67.48,870730
1154,40.76,545992
1155,113.96,1405006
1156,30.35,416045
1157,94.11,1166054
1158,60.22,752760
1159,98.05,1283939
1160,37.64,506636
1161,95.9,1205255
1162,50.84,638724
1163,123.54,1519021
1164,39.75,521175
1165,89.38,1174176
1166,62.94,852980
1167,20.89,341020
1168,81.91,1105875
1169,95.08,1242665
1170,107.22,1317622
1171,176.77,2221035
1172,91.19,1157606
1173,142.62,1729807
1174,111.54,1337590
1175,152.0,1893825
1176,80.82,1049152
1177,110.63,1398626
1178,97.3,1204486
1179,181.01,2276465
1180,86.23,1102760
1181,143.12,1788687
1182,100.79,1270631
1183,51.38,778144
1184,59.54,770357
1185,91.2,1082460
1186,50.96,682412
1187,120.35,1488982
1188,51.05,642097
1189,123.62,1474871
1190,61.72,781417
1191,92.29,1172443
1192,52.06,673353
1193,115.48,1371846
1194,57.31,719207
1195,162.84,1918607
1196,47.47,628702
1197,124.88,1526614
1198,71.63,903536
1199,30.05,448907
1200,108.29,1443383
1201,148.75,1895787
1202,126.38,1596021
1203,166.63,2131367
1204,106.38,1390406
1205,201.85,2356786
1206,140.13,1723795
1207,147.54,1847993
1208,110.03,1354475
1209,189.57,2252273
1210,145.78,1815777
1211,139.6,1799265
1212,112.81,1417479
1213,183.96,2224566
1214,145.98,1830402
1215,67.81,976590
1216,35.85,488225
1217,71.65,943353
1218,40.5,530670
1219,106.99,1359266
1220,36.31,488656
1221,118.2,1447055
1222,55.46,731454
1223,70.53,961643
1224,35.23,460324
1225,101.59,1283887
1226,56.99,727153
1227,107.96,1439341
1228,35.61,494192
1229,92.62,1200699
1230,64.84,905465
1231,24.96,406779
1232,95.37,1246698
1233,142.1,1794581
1234,109.3,1322779
1235,159.69,1974680
1236,102.92,1318794
1237,159.96,1943997
1238,144.12,1739175
1239,144.52,1846487
1240,100.05,1262550
1241,185.69,2298206
1242,130.79,1590888
1243,194.37,2518436
1244,99.63,1266029
1245,127.14,1608891
1246,132.08,1639619
1247,58.74,853366
1248,55.9,780860
1249,89.58,1150390
1250,59.43,800069
1251,148.97,1888204
1252,52.61,744721
1253,117.25,1497546
1254,73.15,961002
1255,107.89,1432242
1256,61.91,806104
1257,94.55,1250956
1258,67.6,897083
1259,144.4,1846606
1260,69.47,957614
1261,122.9,1534669
1262,59.09,833349
1263,35.26,558112
1264,23.51,369437
1265,51.96,816055
1266,26.28,432705
1267,80.36,1126683
1268,19.88,339735
1269,62.67,960639
1270,37.07,604465
1271,64.73,985888
1272,21.47,352685
1273,51.78,801002
1274,34.18,538105
1275,72.69,1118635
1276,28.23,447033
1277,74.85,1051621
1278,34.04,558094
1279,38.31,646645
1280,69.91,968151
1281,121.22,1569928
1282,91.09,1154827
1283,158.78,2022849
1284,77.36,1035027
1285,107.92,1448069
1286,123.13,1570687
1287,150.85,1986376
1288,77.63,1040066
1289,114.4,1492335
1290,104.76,1320980
1291,187.38,2421065
1292,97.66,1279750
1293,132.18,1697156
1294,104.09,1404441
1295,52.85,839628
1296,102.53,1402727
1297,107.34,1492316
1298,133.97,1652144
1299,190.84,2516392
1300,104.88,1372600
1301,107.86,1477404
1302,136.2,1639228
1303,171.66,2180846
1304,128.34,1684690
1305,131.03,1742834
1306,152.61,1794253
1307,205.5,2664769
1308,124.09,1608958
1309,158.59,2017186
1310,122.81,1538561
1311,76.88,1160593
1312,94.73,1232973
1313,114.28,1486627
1314,90.17,1177474
1315,198.66,2299730
1316,103.5,1280436
1317,108.39,1444198
1318,121.3,1517023
1319,152.54,1879600
1320,91.81,1177057
1321,119.5,1562770
1322,103.82,1306301
1323,223.53,2730794
1324,102.59,1243638
1325,153.58,1906303
1326,115.04,1493258
1327,69.29,1027199
1328,154.59,2119431
1329,160.79,2107516
1330,203.47,2473607
1331,143.73,1932272
1332,182.39,2131536
1333,153.04,2111897
1334,203.73,2375818
1335,180.14,2345534
1336,194.91,2393376
1337,192.67,2456109
1338,179.29,2200523
1339,188.23,2415305
1340,193.7,2356189
1341,146.66,1939391
1342,189.21,2298386
1343,90.88,1324166
1344,84.64,1136250
1345,126.48,1612466
1346,100.71,1256874
1347,187.19,2338542
1348,85.16,1093511
1349,114.03,1451227
1350,134.25,1621627
1351,144.06,1845092
1352,80.5,1011879
1353,121.53,1533646
1354,114.2,1395946
1355,191.8,2333586
1356,76.77,984298
1357,152.26,1856312
1358,124.86,1591543
1359,68.06,974132
1360,129.88,1673114
1361,100.91,1369244
1362,134.81,1681860
1363,157.71,2043352
1364,103.78,1363186
1365,99.31,1349085
1366,132.8,1632472
1367,143.24,1808358
1368,118.11,1499847
1369,131.27,1805115
1370,127.13,1547499
1371,201.95,2440017
1372,98.7,1285928
1373,168.26,2121520
1374,122.86,1520034
1375,56.79,918258
1376,107.51,1374878
1377,152.22,1921351
1378,102.05,1327589
1379,215.16,2535893
1380,132.95,1591251
1381,137.05,1717732
1382,115.95,1466551
1383,191.27,2444406
1384,112.9,1381469
1385,141.3,1736628
1386,135.28,1687361
1387,220.82,2694674
1388,116.38,1402157
1389,174.73,2062449
1390,119.0,1542289
1391,74.72,1069067
1392,164.76,2047579
1393,157.32,2024575
1394,143.17,1846953
1395,180.38,2436796
1396,161.56,2018952
1397,137.65,1893760
1398,157.7,2003274
1399,151.16,2057481
1400,168.28,2159473
1401,179.28,2352915
1402,156.54,1921388
1403,167.87,2236892
1404,136.21,1767987
1405,143.98,1865414
1406,138.63,1846279
1407,84.94,1394885
1408,82.08,1053033
1409,118.48,1554871
1410,92.28,1118106
1411,180.05,2244163
1412,95.83,1202263
1413,110.88,1489835
1414,126.73,1529311
1415,181.89,2267996
1416,77.92,1019357
1417,127.25,1657895
1418,100.83,1261301
1419,194.57,2369390
1420,95.85,1183335
1421,151.48,1969709
1422,115.43,1483221
1423,64.71,969951
1424,119.36,1560990
1425,118.67,1562376
1426,147.88,1711686
1427,210.37,2590479
1428,124.25,1552929
1429,105.79,1494418
1430,127.44,1537503
1431,176.84,2278360
1432,131.17,1690272
1433,109.21,1492641
1434,147.93,1734317
1435,174.92,2217024
1436,121.52,1501930
1437,181.54,2166685
1438,138.75,1712804
1439,66.1,978868
1440,118.51,1486530
1441,171.32,2182973
1442,117.45,1473353
1443,236.72,2741538
1444,114.09,1369876
1445,131.08,1582632
1446,138.15,1660556
1447,191.57,2341894
1448,110.2,1345864
1449,144.58,1704607
1450,103.47,1306158
1451,212.73,2514590
1452,123.46,1401225
1453,182.4,2173827
1454,127.33,1596769
1455,80.5,1100993
1456,177.8,2175740
1457,183.98,2280205
1458,183.82,2251578
1459,211.05,2835118
1460,192.7,2390182
1461,172.17,2189952
1462,217.24,2707458
1463,195.12,2449209
1464,202.47,2490511
1465,208.31,2572846
1466,204.75,2381496
1467,181.03,2382443
1468,188.26,2249046
1469,182.81,2332995
1470,217.25,2576518
1471,99.25,1388548
1472,90.08,1182985
1473,132.53,1668734
1474,109.05,1359703
1475,202.54,2490177
1476,87.46,1147743
1477,124.91,1643012
1478,125.49,1517550
1479,159.85,2023924
1480,91.31,1133270
1481,129.77,1665695
1482,109.16,1325759
1483,221.25,2611008
1484,91.13,1164758
1485,144.86,1857936
1486,113.39,1407861
1487,56.57,821225
1488,137.4,1692461
1489,142.69,1837801
1490,149.64,1900177
1491,205.47,2495104
1492,144.38,1848627
1493,127.69,1626084
1494,160.03,2006423
1495,209.14,2632085
1496,151.32,1892219
1497,183.27,2383330
1498,198.19,2261934
1499,211.51,2685661
1500,146.6,1825180
1501,134.46,1871358
1502,163.27,1941696
1503,80.29,1218582
1504,98.84,1313651
1505,127.63,1630257
1506,105.89,1346763
1507,196.98,2425867
1508,134.39,1616399
1509,117.6,1506363
1510,126.13,1643811
1511,156.8,2000541
1512,115.61,1504422
1513,129.62,1604151
1514,122.78,1529536
1515,184.95,2406760
1516,115.21,1445876
1517,173.79,2231989
1518,104.08,1386283
1519,79.43,1146283
1520,47.35,760405
1521,65.39,1014604
1522,65.01,936489
1523,93.67,1336777
1524,52.11,775103
1525,67.11,952468
1526,68.66,1038964
1527,81.56,1276418
1528,58.66,892026
1529,70.76,1070271
1530,72.21,1010753
1531,98.74,1431668
1532,61.25,931865
1533,65.72,1000056
1534,71.22,1082208
1535,76.77,1162310
1536,41.5,588533
1537,95.29,1262327
1538,50.69,697658
1539,133.6,1678685
1540,56.42,748898
1541,137.98,1717026
1542,59.99,852769
1543,98.6,1334893
1544,56.36,743143
1545,113.27,1448424
1546,56.69,768178
1547,127.05,1710695
1548,51.6,693014
1549,115.65,1482929
1550,64.31,878163
1551,35.8,593374
1552,78.27,1082085
1553,89.56,1181886
1554,83.95,1056992
1555,178.06,2138502
1556,97.23,1237159
1557,144.99,1789829
1558,85.11,1126310
1559,135.77,1805300
1560,91.78,1176935
1561,113.27,1415238
1562,92.61,1163847
1563,160.79,1980778
1564,89.75,1156020
1565,159.87,1840414
1566,80.22,1083678
1567,59.98,955893
1568,56.33,779929
1569,92.57,1190624
1570,57.92,796212
1571,134.24,1744689
1572,58.33,768251
1573,150.44,1835931
1574,58.8,804401
1575,112.27,1500970
1576,59.84,765491
1577,117.1,1432248
1578,51.91,724635
1579,123.91,1593790
1580,63.64,836543
1581,127.86,1552120
1582,69.6,922115
1583,38.33,633403
1584,129.2,1644130
1585,181.05,2259172
1586,137.85,1718813
1587,170.73,2195784
1588,154.34,1838306
1589,200.35,2468849
1590,119.59,1534966
1591,185.97,2352511
1592,136.22,1675377
1593,210.66,2540253
1594,150.96,1766835
1595,161.57,2122307
1596,155.77,1848739
1597,178.69,2202761
1598,125.53,1686702
1599,73.01,1073407
1600,48.71,672909
1601,91.24,1178363
1602,59.92,782816
1603,158.25,2050874
1604,46.57,630371
1605,140.65,1704594
1606,52.9,705530
1607,131.14,1642493
1608,56.23,711416
1609,124.88,1543289
1610,61.27,796088
1611,136.05,1768749
1612,53.52,699818
1613,139.16,1684866
1614,73.83,969497
1615,34.18,537712
1616,127.74,1620715
1617,151.24,1911013
1618,147.37,1750881
1619,188.57,2270692
1620,127.26,1539991
1621,162.33,1981342
1622,108.31,1392428
1623,166.12,2062627
1624,113.91,1433668
1625,144.5,1787799
1626,125.54,1502537
1627,207.93,2505185
1628,127.12,1528420
1629,184.88,2214566
1630,123.79,1588739
1631,72.63,1092267
1632,61.2,840221
1633,82.8,1106699
1634,56.3,776235
1635,127.02,1652742
1636,52.3,690214
1637,109.93,1402886
1638,49.71,718987
1639,95.08,1314570
1640,55.97,760245
1641,98.08,1263003
1642,67.22,907703
1643,122.51,1610191
1644,56.75,765606
1645,120.46,1538936
1646,61.3,877462
1647,35.68,565041
1648,104.75,1433550
1649,122.93,1662650
1650,100.37,1361303
1651,187.76,2316389
1652,98.9,1310364
1653,178.26,2158083
1654,89.58,1238844
1655,105.91,1474614
1656,98.84,1372480
1657,198.62,2461654
1658,115.9,1536594
1659,139.78,1852372
1660,99.87,1285590
1661,194.19,2372027
1662,114.66,1536747
1663,67.47,1032965
1664,50.55,684668
1665,92.82,1184630
1666,62.19,829575
1667,139.01,1766130
1668,55.29,701561
1669,134.89,1583517
1670,58.59,811929
1671,107.48,1433714
1672,56.5,749768
1673,125.48,1501160
1674,68.9,914556
1675,150.45,1895094
1676,60.33,786007
1677,159.12,1994991
1678,72.8,976474
1679,36.03,566779
1680,120.18,1504270
1681,115.63,1426669
1682,125.44,1537641
1683,215.09,2547683
1684,109.68,1383391
1685,181.63,2130633
1686,106.34,1375350
1687,177.22,2144198
1688,102.03,1243450
1689,112.57,1409082
1690,106.17,1313890
1691,208.7,2537648
1692,101.28,1245899
1693,171.41,2032396
1694,117.55,1500538
1695,79.28,1154875
1696,51.25,720167
1697,95.86,1185770
1698,62.33,804828
1699,162.43,2056243
1700,69.28,904722
1701,139.53,1638022
1702,57.95,809356
1703,102.23,1381725
1704,63.7,826965
1705,117.13,1419229
1706,58.12,797450
1707,140.97,1762839
1708,60.09,780399
1709,149.28,1818156
1710,68.96,945498
1711,40.09,637181
1712,110.55,1484909
1713,161.45,1958895
1714,135.95,1806802
1715,150.41,1932216
1716,132.72,1735670
1717,236.77,2838799
1718,114.68,1518198
1719,151.43,1938760
1720,133.21,1773018
1721,208.86,2573382
1722,138.59,1725652
1723,169.65,2209349
1724,135.06,1657843
1725,200.94,2532416
1726,117.99,1613247
1727,69.46,1030630
1728,65.54,826576
1729,88.71,1135716
1730,65.14,810127
1731,124.38,1591460
1732,56.75,742467
1733,125.99,1564404
1734,55.35,737510
1735,104.66,1355605
1736,65.6,838469
1737,132.99,1632462
1738,60.92,796972
1739,141.72,1782292
1740,50.81,689570
1741,136.33,1622612
1742,78.0,1021746
1743,44.96,705441
1744,137.57,1664932
1745,151.86,1943673
1746,153.08,1849136
1747,194.01,2315489
1748,128.58,1529968
1749,172.3,2134847
1750,113.41,1453003
1751,180.22,2110630
1752,139.91,1630487
1753,187.97,2201017
1754,152.66,1828221
1755,224.07,2808872
1756,120.32,1481433
1757,172.65,2239328
1758,123.24,1544034
1759,73.47,1064957
1760,60.79,851907
1761,90.69,1131717
1762,60.79,825436
1763,148.6,1873100
1764,62.21,864530
1765,121.92,1555705
1766,64.29,888719
1767,104.96,1469981
1768,68.43,891197
1769,121.56,1481365
1770,85.32,1125618
1771,148.0,1922904
1772,68.1,915572
1773,149.89,1919100
1774,56.92,804255
1775,45.98,738847
1776,28.7,480166
1777,50.28,787457
1778,30.84,498193
1779,86.37,1205654
1780,33.84,535248
1781,76.35,1120597
1782,35.71,580347
1783,71.96,1045541
1784,35.32,568593
1785,60.72,876437
1786,37.24,584499
1787,85.45,1284375
1788,37.69,579307
1789,77.9,1118459
1790,41.45,674341
1791,56.64,881354
1792,43.75,684420
1793,94.89,1375192
1794,65.33,937015
1795,125.48,1711839
1796,62.96,883913
1797,149.94,1993659
1798,77.21,1080058
1799,72.75,1115490
1800,52.43,781556
1801,117.66,1681066
1802,72.09,1076256
1803,113.32,1625956
1804,52.96,770794
1805,131.54,1773081
1806,80.53,1224074
1807,48.97,798079
1808,79.92,1205378
1809,84.21,1268418
1810,95.51,1356899
1811,165.02,2260971
1812,92.1,1295589
1813,143.77,1953796
1814,111.47,1485272
1815,122.03,1695254
1816,107.44,1495994
1817,111.8,1602864
1818,112.02,1488435
1819,150.9,2035740
1820,90.03,1277346
1821,143.54,1970435
1822,110.03,1534589
1823,80.19,1291696
1824,63.93,921434
1825,114.48,1595387
1826,58.63,881744
1827,146.03,1940359
1828,70.84,981122
1829,128.08,1697834
1830,85.62,1229317
1831,106.66,1484631
1832,66.27,922456
1833,136.67,1771766
1834,73.9,1054743
1835,99.97,1398929
1836,70.17,957961
1837,139.69,1724346
1838,87.01,1294321
1839,55.71,892030
1840,107.7,1502132
1841,148.11,1936670
1842,130.7,1613012
1843,105.64,1478944
1844,125.67,1652402
1845,176.22,2175540
1846,150.88,2034328
1847,115.8,1609112
1848,136.54,1819269
1849,169.92,2225751
1850,159.0,1952428
1851,101.78,1494617
1852,150.11,1892729
1853,150.62,1944564
1854,151.1,1950959
1855,74.91,1170140
1856,56.25,819317
1857,100.44,1433030
1858,72.14,977708
1859,122.74,1664569
1860,56.26,817451
1861,127.55,1657468
1862,89.27,1230070
1863,103.55,1400441
1864,67.71,938238
1865,117.05,1560123
1866,89.07,1196175
1867,100.81,1359147
1868,66.96,946860
1869,135.43,1781770
1870,89.4,1217776
1871,58.45,891382
1872,129.51,1699879
1873,136.73,1800848
1874,158.22,2025830
1875,172.18,2336809
1876,134.05,1726489
1877,141.09,1914771
1878,165.41,1919952
1879,149.63,2049829
1880,158.48,2030224
1881,148.56,1978415
1882,142.13,1727172
1883,147.12,1954426
1884,131.05,1706857
1885,141.88,1954341
1886,133.97,1718580
1887,79.69,1179306
1888,76.1,1121700
1889,127.72,1663893
1890,91.68,1294223
1891,141.72,1834452
1892,81.58,1142336
1893,153.88,1910930
1894,79.86,1110087
1895,121.67,1694850
1896,89.26,1206102
1897,152.67,2041290
1898,106.48,1413878
1899,124.78,1732438
1900,97.85,1370202
1901,173.54,2179466
1902,97.39,1340934
1903,68.2,1043952
1904,80.34,1162936
1905,118.16,1704190
1906,99.25,1372476
1907,126.39,1701305
1908,92.26,1293778
1909,145.76,1967900
1910,108.73,1518781
1911,61.08,916754
1912,75.43,1109698
1913,120.18,1689013
1914,116.71,1514567
1915,127.38,1676887
1916,89.96,1230967
1917,133.69,1713600
1918,108.49,1443835
1919,40.82,694618
1920,47.9,737812
1921,105.73,1512242
1922,68.58,958412
1923,138.95,1862190
1924,63.89,908345
1925,147.3,1972739
1926,88.11,1196392
1927,106.86,1486420
1928,50.85,747629
1929,119.87,1658295
1930,74.64,1033184
1931,143.1,1882005
1932,64.27,914251
1933,141.06,1853630
1934,99.11,1401773
1935,54.18,855155
1936,100.16,1398710
1937,133.7,1757430
1938,125.94,1633642
1939,171.38,2301517
1940,118.26,1588453
1941,149.55,1993631
1942,140.64,1822188
1943,136.86,1835544
1944,116.14,1613536
1945,114.74,1635117
1946,155.79,1868004
1947,163.22,2191716
1948,130.63,1680424
1949,182.89,2383692
1950,148.4,1860780
1951,77.81,1132956
1952,78.66,1140452
1953,123.25,1637856
1954,80.17,1124167
1955,152.99,2007152
1956,79.37,1062326
1957,150.61,1838378
1958,96.96,1332529
1959,112.44,1495000
1960,86.61,1160448
1961,158.24,2001810
1962,73.72,1038087
1963,138.16,1758027
1964,79.05,1089168
1965,166.11,2067133
1966,96.1,1306916
1967,72.42,1087253
1968,102.19,1391456
1969,117.14,1638143
1970,113.04,1544857
1971,128.01,1743791
1972,112.82,1483086
1973,162.28,2134017
1974,137.16,1798694
1975,92.16,1355032
1976,107.09,1441832
1977,169.86,2209367
1978,123.16,1578346
1979,106.17,1450322
1980,113.06,1458770
1981,163.66,2054180
1982,122.53,1726483
1983,55.44,859679
1984,56.72,804858
1985,120.43,1581884
1986,85.37,1197339
1987,139.02,1832983
1988,65.21,893561
1989,141.43,1811098
1990,89.48,1251150
1991,99.2,1362062
1992,59.74,882343
1993,124.07,1645338
1994,77.98,1056053
1995,104.45,1451097
1996,54.6,803673
1997,142.79,1826025
1998,86.7,1224520
1999,65.28,960973
2000,118.44,1591018
2001,139.16,1892126
2002,144.11,1801836
2003,141.4,1820856
2004,135.79,1680486
2005,156.2,2049941
2006,157.25,1962261
2007,128.6,1776501
2008,147.51,1879433
2009,172.97,2156968
2010,154.78,1890074
2011,153.44,1986562
2012,147.49,1910564
2013,110.62,1553123
2014,145.37,1908006
2015,97.5,1490506
2016,78.66,1128119
2017,106.97,1522467
2018,84.82,1228937
2019,160.99,2089930
2020,73.5,1104232
2021,147.03,1896505
2022,87.34,1250598
2023,144.06,1925759
2024,88.62,1262838
2025,152.18,2013792
2026,104.24,1352910
2027,118.37,1682429
2028,86.1,1217658
2029,141.3,1855603
2030,81.18,1175458
2031,65.98,1091358
2032,44.15,718462
2033,68.09,1077309
2034,51.63,782748
2035,74.45,1142756
2036,55.51,830054
2037,86.27,1324018
2038,61.03,959036
2039,39.75,686074
2040,56.42,878752
2041,81.99,1249720
2042,70.64,1101347
2043,69.26,1062684
2044,50.47,778724
2045,91.44,1386004
2046,62.55,1013969
2047,46.78,836836
2048,34.66,478732
2049,77.86,1066137
2050,43.23,580778
2051,89.99,1206768
2052,32.59,437588
2053,96.55,1269091
2054,48.74,638369
2055,72.83,1022787
2056,29.03,405333
2057,87.53,1155950
2058,45.78,622372
2059,89.3,1210995
2060,33.18,470169
2061,93.8,1237960
2062,57.19,781442
2063,22.84,388059
2064,71.08,967431
2065,67.48,950763
2066,76.95,1020764
2067,157.35,2041570
2068,71.53,976671
2069,120.49,1563366
2070,97.42,1224289
2071,119.19,1642038
2072,69.46,937281
2073,101.01,1378913
2074,94.11,1130504
2075,138.22,1844716
2076,62.52,830033
2077,143.92,1813522
2078,74.15,1029322
2079,39.21,654982
2080,41.04,541276
2081,87.74,1127322
2082,36.46,493603
2083,108.39,1371533
2084,54.26,696548
2085,98.84,1249968
2086,65.85,851932
2087,81.65,1147813
2088,44.01,591604
2089,100.73,1237225
2090,49.46,639307
2091,119.86,1548062
2092,42.56,577663
2093,112.28,1411226
2094,55.73,756077
2095,23.97,381453
2096,116.55,1510152
2097,151.42,1964002
2098,136.91,1676931
2099,137.19,1873306
2100,127.45,1612534
2101,180.49,2315783
2102,144.87,1794569
2103,155.35,2051246
2104,98.09,1289605
2105,196.24,2317591
2106,146.87,1802894
2107,162.54,2101352
2108,115.64,1432457
2109,168.92,2069430
2110,142.27,1831499
2111,61.26,918069
2112,35.1,486694
2113,74.0,969960
2114,40.73,538197
2115,93.2,1224271
2116,33.6,450497
2117,87.46,1118843
2118,49.5,634559
2119,75.01,1035030
2120,31.18,431263
2121,89.28,1114221
2122,56.42,701883
2123,119.78,1519188
2124,32.43,440653
2125,100.92,1227755
2126,57.21,759641
2127,22.31,358826
2128,95.46,1215463
2129,127.48,1730335
2130,102.22,1266164
2131,183.14,2363333
2132,97.44,1209962
2133,135.41,1735566
2134,136.18,1702519
2135,150.9,1929212
2136,92.14,1187979
2137,135.58,1695549
2138,121.87,1514260
2139,230.04,2877277
2140,97.52,1212507
2141,138.57,1752569
2142,117.71,1519264
2143,62.43,918103
2144,53.0,715093
2145,94.67,1196828
2146,52.63,719393
2147,165.78,2031237
2148,58.38,759204
2149,127.83,1573160
2150,63.71,858382
2151,103.38,1405446
2152,46.26,615275
2153,111.47,1383674
2154,75.96,991206
2155,153.58,1920670
2156,61.29,788397
2157,119.11,1484552
2158,64.79,846553
2159,41.51,655758
2160,67.69,937017
2161,106.01,1451604
2162,76.53,1064565
2163,150.08,1967559
2164,73.27,1002004
2165,155.91,2039820
2166,91.65,1255081
2167,118.22,1633050
2168,70.79,1016924
2169,141.94,1851671
2170,112.02,1400864
2171,122.2,1602328
2172,82.55,1092770
2173,169.84,2210609
2174,125.07,1707695
2175,45.29,727483
2176,25.69,378375
2177,57.8,811686
2178,43.63,573124
2179,93.82,1236665
2180,35.22,481932
2181,96.26,1238406
2182,50.98,681525
2183,59.63,836314
2184,26.54,384816
2185,78.79,1102929
2186,58.4,747709
2187,90.91,1243337
2188,37.94,527987
2189,77.38,1024217
2190,48.47,690892
2191,18.3,317847
2192,81.36,1079309
2193,117.57,1525291
2194,98.32,1254041
2195,199.2,2413215
2196,79.99,1053045
2197,150.91,1887927
2198,127.44,1546484
2199,132.35,1767210
2200,79.89,1070036
2201,113.78,1444616
2202,115.2,1399062
2203,189.59,2351855
2204,95.71,1252017
2205,161.67,2032314
2206,115.62,1486650
2207,46.8,758779
2208,44.35,602386
2209,92.55,1164351
2210,52.67,700382
2211,137.73,1690932
2212,49.47,622544
2213,127.88,1561331
2214,63.86,815414
2215,99.99,1349212
2216,42.01,563403
2217,110.07,1368145
2218,48.58,649335
2219,133.22,1693849
2220,60.51,766901
2221,131.22,1632752
2222,64.67,825199
2223,39.48,590112
2224,114.3,1451689
2225,164.38,2115211
2226,113.64,1493039
2227,148.21,1915072
2228,123.48,1519703
2229,200.41,2542428
2230,161.42,2055161
2231,144.5,1888821
2232,106.72,1390455
2233,178.96,2454344
2234,126.1,1606728
2235,160.76,2153328
2236,113.16,1445561
2237,176.25,2193859
2238,138.38,1779058
2239,73.51,1039132
2240,37.88,523961
2241,67.58,878194
2242,47.86,655857
2243,95.11,1217845
2244,31.92,440176
2245,104.78,1321552
2246,58.35,733085
2247,83.0,1094819
2248,32.21,430900
2249,86.59,1098043
2250,50.24,661721
2251,115.66,1496186
2252,38.97,535990
2253,104.2,1333880
2254,61.68,841676
2255,26.5,436094
2256,90.27,1190604
2257,134.79,1853164
2258,111.41,1389408
2259,169.18,2188260
2260,109.49,1398135
2261,138.01,1746477
2262,129.32,1527130
2263,161.14,2062298
2264,92.28,1225084
2265,173.79,2138533
2266,125.69,1553579
2267,188.31,2464146
2268,114.04,1463253
2269,128.87,1652012
2270,140.1,1811711
2271,55.44,826877
2272,52.94,732642
2273,81.21,1046155
2274,58.14,804326
2275,131.6,1679370
2276,69.43,878332
2277,123.64,1536376
2278,77.8,1036608
2279,109.33,1506523
2280,58.08,817475
2281,118.82,1494263
2282,71.51,956900
2283,149.19,1969579
2284,55.79,774032
2285,130.89,1728981
2286,59.45,866617
2287,35.06,576864
2288,22.1,388678
2289,46.62,743201
2290,29.18,476485
2291,66.76,1026496
2292,24.52,403723
2293,64.34,984864
2294,30.88,488537
2295,55.77,885624
2296,19.95,358146
2297,54.24,828936
2298,34.52,545422
2299,78.9,1154631
2300,29.35,487645
2301,65.55,986049
2302,40.39,669544
2303,44.89,724969
2304,69.53,919945
2305,78.28,1085148
2306,77.75,1025010
2307,169.58,2168123
2308,78.91,1047338
2309,124.1,1621958
2310,113.0,1472023
2311,123.0,1679350
2312,70.39,974807
2313,84.1,1164450
2314,109.95,1430484
2315,182.2,2289701
2316,88.53,1147918
2317,155.96,2083084
2318,113.17,1522939
2319,48.78,786348
2320,91.41,1224721
2321,79.34,1120064
2322,93.04,1202789
2323,148.79,1971869
2324,78.31,1038391
2325,125.84,1682563
2326,108.91,1385692
2327,147.52,1984980
2328,97.76,1266374
2329,81.65,1174785
2330,112.02,1393273
2331,163.55,2181555
2332,92.67,1205871
2333,161.52,2086862
2334,111.55,1384418
2335,49.0,775655
2336,80.64,1072173
2337,94.96,1202220
2338,82.08,1103619
2339,197.73,2347665
2340,90.67,1133250
2341,141.07,1755026
2342,121.13,1565663
2343,152.58,1946003
2344,91.63,1179691
2345,114.31,1446889
2346,91.72,1198547
2347,164.84,2113567
2348,89.32,1134666
2349,181.38,2100480
2350,100.57,1358403
2351,56.54,860058
2352,165.43,2106731
2353,174.09,2307405
2354,191.34,2315819
2355,176.01,2352799
2356,164.83,1989989
2357,174.37,2240686
2358,227.93,2599902
2359,181.62,2271225
2360,188.8,2253947
2361,156.6,2049208
2362,207.32,2429036
2363,213.96,2665034
2364,178.5,2352558
2365,177.22,2246662
2366,193.81,2326209
2367,85.72,1270857
2368,75.01,1025708
2369,116.99,1464465
2370,88.52,1109524
2371,168.76,2066399
2372,65.63,883020
2373,126.98,1586007
2374,123.48,1521882
2375,154.89,1958620
2376,86.25,1097969
2377,103.94,1364735
2378,112.46,1355976
2379,201.27,2401269
2380,71.9,942120
2381,161.09,1940442
2382,104.54,1330446
2383,50.56,771125
2384,130.15,1691859
2385,132.51,1693640
2386,141.91,1759280
2387,223.94,2744229
2388,134.43,1628032
2389,116.88,1563503
2390,169.18,1963732
2391,172.65,2228699
2392,131.73,1708735
2393,124.85,1673972
2394,175.9,2080404
2395,225.0,2879378
2396,148.62,1811112
2397,199.8,2511690
2398,133.48,1641683
2399,76.41,1133987
2400,105.66,1393120
2401,121.7,1531564
2402,95.27,1227509
2403,230.79,2728906
2404,122.65,1473421
2405,151.34,1905553
2406,90.94,1220102
2407,191.31,2370671
2408,108.39,1364207
2409,122.94,1555732
2410,123.04,1483460
2411,200.79,2372324
2412,106.74,1262771
2413,207.1,2578773
2414,124.09,1600703
2415,88.33,1273267
2416,127.2,1651717
2417,126.59,1720245
2418,146.65,1964949
2419,184.19,2409815
2420,137.2,1760057
2421,157.9,2066408
2422,142.45,1922562
2423,142.56,1894313
2424,161.05,2088958
2425,130.25,1792637
2426,156.12,1897395
2427,161.51,2065397
2428,141.78,1724135
2429,168.42,2154155
2430,147.9,1836625
2431,75.07,1141509
2432,73.6,985771
2433,98.34,1286922
2434,115.43,1470220
2435,190.05,2306410
2436,78.72,1005995
2437,147.64,1854616
2438,118.54,1451861
2439,143.36,1851665
2440,81.48,1068215
2441,99.53,1293928
2442,106.71,1318659
2443,188.21,2460351
2444,85.1,1047090
2445,191.49,2413243
2446,92.48,1216699
2447,59.69,938788
2448,80.4,1148279
2449,94.04,1262380
2450,100.77,1288786
2451,166.37,2238082
2452,99.33,1281818
2453,132.03,1760906
2454,119.71,1546764
2455,131.42,1787835
2456,93.28,1262788
2457,95.17,1318166
2458,132.15,1617529
2459,174.64,2324773
2460,89.35,1219560
2461,154.36,2040318
2462,105.88,1362118
2463,55.58,836312
2464,101.4,1262638
2465,96.0,1278961
2466,85.82,1085656
2467,218.97,2523075
2468,94.71,1150509
2469,174.79,2011124
2470,128.34,1579035
2471,177.41,2142257
2472,100.46,1241269
2473,121.2,1488690
2474,99.54,1256348
2475,211.91,2599429
2476,105.41,1306947
2477,178.92,2074884
2478,121.66,1523473
2479,65.33,954285
2480,186.87,2412435
2481,189.74,2444076
2482,182.99,2202296
2483,176.13,2448370
2484,167.23,2080148
2485,176.08,2279656
2486,191.66,2401463
2487,179.75,2246818
2488,170.88,2172134
2489,148.65,2034196
2490,189.67,2287903
2491,224.72,2877667
2492,199.44,2356636
2493,194.58,2526476
2494,176.11,2165597
2495,93.44,1374479
2496,80.92,1076292
2497,105.67,1364999
2498,89.51,1128427
2499,189.77,2171237
2500,87.08,1145740
2501,143.98,1777425
2502,123.43,1456652
2503,148.4,1841419
2504,83.7,1077764
2505,98.47,1299561
2506,108.75,1307168
2507,187.16,2344588
2508,87.02,1139026
2509,151.43,1911115
2510,105.13,1299534
2511,58.78,871976
2512,140.54,1842789
2513,145.84,1974996
2514,169.43,2040911
2515,200.74,2499577
2516,146.69,1807434
2517,144.13,1844217
2518,199.03,2398040
2519,196.23,2422012
2520,152.72,1923831
2521,128.07,1680069
2522,155.43,1788085
2523,229.08,2890862
2524,166.68,2037275
2525,140.67,1882654
2526,162.34,1923550
2527,79.14,1190536
2528,91.52,1263360
2529,116.16,1491168
2530,117.67,1487527
2531,187.94,2255424
2532,110.7,1403337
2533,147.72,1786635
2534,115.01,1444871
2535,159.83,2057127
2536,115.22,1446245
2537,94.79,1294001
2538,105.58,1357088
2539,209.27,2517887
2540,99.4,1286265
2541,192.19,2385068
2542,95.66,1285315
2543,55.08,839454
2544,46.89,757614
2545,68.17,1099655
2546,62.88,956072
2547,104.22,1561984
2548,48.49,747248
2549,71.91,1067289
2550,82.57,1179148
2551,81.81,1224853
2552,59.08,884982
2553,47.94,758536
2554,70.72,1053303
2555,94.92,1462640
2556,51.27,773006
2557,85.54,1269804
2558,57.94,856543
2559,87.37,1394503
2560,46.58,673907
2561,81.67,1085660
2562,58.57,802095
2563,148.93,1859521
2564,49.18,669783
2565,112.18,1370059
2566,71.76,962263
2567,99.37,1323495
2568,41.82,563484
2569,105.11,1342002
2570,51.52,706985
2571,143.27,1825035
2572,51.03,680736
2573,128.71,1573411
2574,66.48,912588
2575,31.63,504670
2576,97.84,1268648
2577,86.01,1126614
2578,110.48,1368946
2579,168.46,2118568
2580,90.76,1138443
2581,180.39,2092636
2582,111.12,1406404
2583,144.01,1871145
2584,107.24,1282653
2585,126.29,1491352
2586,102.16,1296511
2587,167.45,2097147
2588,79.68,1013396
2589,157.38,1852102
2590,87.58,1133642
2591,53.02,793324
2592,50.75,702273
2593,93.51,1160817
2594,43.7,594716
2595,135.18,1685316
2596,51.66,673445
2597,125.49,1509121
2598,53.75,716025
2599,100.19,1361051
2600,50.67,650460
2601,109.08,1364091
2602,45.03,596311
2603,132.0,1691961
2604,54.17,702046
2605,126.43,1506654
2606,66.87,904399
2607,29.29,472545
2608,126.12,1593075
2609,177.42,2199941
2610,122.15,1625987
2611,142.09,1783973
2612,135.5,1641342
2613,218.69,2574510
2614,133.21,1661973
2615,163.57,2015088
2616,137.66,1706634
2617,197.38,2310680
2618,112.94,1452494
2619,201.54,2576511
2620,139.56,1701452
2621,184.24,2152594
2622,155.99,1912500
2623,78.93,1117447
2624,52.68,671253
2625,87.14,1099655
2626,51.42,685507
2627,140.1,1753573
2628,51.19,687250
2629,133.42,1563063
2630,63.77,821131
2631,103.18,1338415
2632,55.89,697255
2633,110.92,1314576
2634,53.78,716492
2635,138.8,1695281
2636,51.64,662610
2637,127.88,1490221
2638,72.71,943730
2639,30.44,472935
2640,116.53,1478928
2641,122.05,1517381
2642,129.05,1554185
2643,218.98,2573204
2644,139.37,1590022
2645,146.43,1730112
2646,127.77,1552913
2647,190.25,2289654
2648,151.91,1741849
2649,149.84,1829728
2650,118.44,1479110
2651,210.14,2504161
2652,116.34,1400188
2653,182.83,2067789
2654,132.28,1642796
2655,62.85,889624
2656,61.09,821416
2657,104.63,1292044
2658,59.87,818467
2659,153.65,1910520
2660,65.23,836464
2661,113.75,1370876
2662,70.54,943540
2663,117.0,1537547
2664,62.37,818026
2665,123.94,1463418
2666,64.72,873411
2667,154.69,1942278
2668,61.76,803056
2669,131.75,1547779
2670,72.58,983875
2671,36.53,572053
2672,88.5,1217749
2673,126.87,1600099
2674,105.91,1387890
2675,181.32,2237721
2676,113.91,1457541
2677,179.85,2144659
2678,118.94,1567042
2679,129.16,1736481
2680,103.74,1316349
2681,170.5,2075260
2682,95.07,1279344
2683,168.88,2196548
2684,91.11,1236676
2685,169.19,2074960
2686,117.01,1517731
2687,67.06,976625
2688,44.48,589522
2689,96.75,1240222
2690,56.87,749582
2691,127.24,1535193
2692,54.31,714576
2693,131.4,1584303
2694,72.2,930164
2695,91.72,1254278
2696,49.66,682494
2697,118.83,1452753
2698,58.26,750957
2699,137.39,1713983
2700,50.47,656938
2701,130.48,1570956
2702,74.58,962698
2703,32.78,520037
2704,99.78,1328291
2705,121.8,1496425
2706,102.37,1271143
2707,238.13,2780259
2708,100.9,1227836
2709,162.15,1920427
2710,110.47,1356981
2711,172.14,2072151
2712,125.49,1581284
2713,119.72,1503509
2714,102.22,1313084
2715,227.16,2654946
2716,108.7,1287999
2717,205.18,2330591
2718,122.91,1454843
2719,63.21,890662
2720,51.52,709986
2721,97.28,1291260
2722,45.24,638358
2723,120.29,1535814
2724,50.97,660429
2725,111.1,1405012
2726,64.94,883492
2727,80.82,1119362
2728,58.5,766870
2729,97.78,1204540
2730,44.4,624692
2731,115.39,1596171
2732,52.7,681945
2733,107.71,1377762
2734,75.03,975920
2735,30.56,500409
2736,120.07,1594269
2737,156.83,1889941
2738,146.62,1829022
2739,177.5,2222345
2740,157.96,1859753
2741,197.49,2323311
2742,135.06,1707846
2743,159.5,1941284
2744,130.69,1694675
2745,196.35,2315579
2746,119.52,1618409
2747,159.93,2064571
2748,130.84,1672895
2749,199.92,2463652
2750,162.43,2066323
2751,74.39,1127027
2752,51.82,701385
2753,80.91,1013180
2754,47.86,619469
2755,129.59,1605473
2756,56.78,741258
2757,122.45,1448871
2758,68.59,878151
2759,106.3,1439076
2760,45.73,586130
2761,114.1,1356742
2762,50.52,681610
2763,153.8,1831815
2764,53.7,711046
2765,143.93,1696451
2766,68.27,892129
2767,30.95,496016
2768,117.61,1468515
2769,151.47,1758317
2770,130.99,1566820
2771,211.48,2467027
2772,144.77,1712817
2773,156.15,1887220
2774,144.9,1817958
2775,212.2,2450182
2776,139.31,1642853
2777,173.51,2057876
2778,115.56,1472534
2779,212.96,2551308
2780,127.6,1482719
2781,179.42,2260108
2782,139.53,1696787
2783,68.44,996572
2784,70.21,933869
2785,110.26,1383058
2786,62.62,897292
2787,137.02,1723588
2788,70.03,937061
2789,137.04,1598069
2790,72.34,1010463
2791,126.99,1616205
2792,68.12,932744
2793,125.45,1540526
2794,68.59,954262
2795,147.05,1902815
2796,74.97,985945
2797,137.7,1661276
2798,68.93,933659
2799,40.43,643103
2800,33.42,556913
2801,55.71,878541
2802,30.8,503581
2803,87.01,1235552
2804,32.27,510867
2805,86.6,1171308
2806,40.36,647961
2807,73.95,1151025
2808,30.3,487473
2809,68.3,980752
2810,31.17,502617
2811,91.32,1279812
2812,34.73,522106
2813,70.25,999272
2814,45.95,713902
2815,51.59,813064
2816,73.6,1029630
2817,120.38,1739642
2818,102.98,1401182
2819,141.04,1847626
2820,86.66,1174722
2821,158.36,2081990
2822,123.45,1626346
2823,127.07,1769565
2824,98.89,1296928
2825,159.37,2049358
2826,112.22,1574420
2827,126.19,1752783
2828,97.45,1296905
2829,158.57,2051064
2830,128.44,1716066
2831,58.98,932379
2832,109.71,1538934
2833,103.17,1506571
2834,150.42,1968950
2835,147.37,2115924
2836,131.73,1787322
2837,195.91,2651285
2838,166.13,2033934
2839,165.21,2190391
2840,132.18,1742057
2841,155.06,2061471
2842,167.43,2105212
2843,141.55,1946301
2844,132.77,1741296
2845,178.8,2369989
2846,145.63,1862641
2847,84.9,1379733
2848,97.23,1327115
2849,166.1,2131089
2850,80.96,1083387
2851,171.35,2197125
2852,108.87,1399333
2853,165.95,1998199
2854,121.21,1603074
2855,134.46,1776668
2856,108.85,1457502
2857,149.56,1904060
2858,110.37,1486626
2859,137.02,1818272
2860,114.57,1460551
2861,168.49,2143027
2862,108.82,1509035
2863,78.96,1173958
2864,124.94,1684771
2865,133.51,1817526
2866,134.57,1764950
2867,110.35,1603410
2868,134.38,1724192
2869,168.03,2128833
2870,165.56,2076498
2871,134.66,1821179
2872,143.57,1898246
2873,193.31,2412769
2874,177.31,2321501
2875,109.4,1511978
2876,164.4,2075388
2877,164.41,2086024
2878,140.88,1796244
2879,63.14,982660
2880,95.63,1260632
2881,137.49,1825658
2882,96.45,1307067
2883,152.21,1933710
2884,79.17,1057152
2885,178.19,2221756
2886,121.65,1592236
2887,152.54,1914561
2888,96.16,1268575
2889,160.78,2086353
2890,117.15,1486845
2891,121.0,1637476
2892,80.41,1087956
2893,178.25,2168828
2894,132.35,1768171
2895,83.06,1205515
2896,139.8,1872613
2897,163.67,2154732
2898,168.63,2179437
2899,189.18,2440403
2900,158.36,1923891
2901,153.54,2028708
2902,196.73,2361206
2903,187.54,2457086
2904,195.45,2431189
2905,204.57,2568004
2906,186.8,2294459
2907,180.91,2420626
2908,166.29,2079486
2909,170.06,2216119
2910,200.93,2508740
2911,98.84,1436220
2912,123.75,1665803
2913,174.14,2305925
2914,136.51,1748410
2915,161.92,2077164
2916,129.22,1657857
2917,195.56,2365239
2918,118.75,1618383
2919,153.49,1934531
2920,133.53,1662599
2921,195.09,2493716
2922,125.59,1628663
2923,159.18,2070310
2924,124.65,1630054
2925,213.12,2600004
2926,122.42,1667782
2927,85.68,1276795
2928,117.18,1613979
2929,188.56,2360899
2930,133.59,1752386
2931,139.33,1882103
2932,136.51,1758039
2933,181.52,2337788
2934,150.5,1983406
2935,94.95,1371473
2936,133.7,1786679
2937,172.65,2192562
2938,175.27,2145162
2939,94.68,1364054
2940,133.13,1689220
2941,188.11,2500273
2942,159.64,2181280
2943,62.76,1008186
2944,84.15,1151738
2945,156.88,2062431
2946,98.74,1297382
2947,135.97,1761012
2948,109.59,1382955
2949,189.25,2314788
2950,112.17,1484798
2951,149.85,1956136
2952,73.36,1003559
2953,154.59,1983726
2954,119.47,1534546
2955,134.78,1797307
2956,98.66,1305413
2957,177.17,2170231
2958,115.99,1589399
2959,66.72,1007452
2960,137.53,1840640
2961,145.46,1906021
2962,170.7,2175372
2963,184.26,2386808
2964,153.77,1982104
2965,185.9,2432796
2966,179.46,2165457
2967,175.36,2231859
2968,161.41,2123466
2969,144.31,2026633
2970,178.79,2124586
2971,185.51,2593466
2972,181.71,2208322
2973,207.55,2662344
2974,170.03,2170656
2975,114.02,1714587
2976,127.34,1641249
2977,151.32,1952376
2978,107.91,1416498
2979,191.95,2440268
2980,119.84,1464658
2981,184.24,2252230
2982,126.83,1678471
2983,155.97,2050750
2984,131.37,1633391
2985,192.33,2330539
2986,113.04,1486179
2987,156.0,1988996
2988,120.33,1506833
2989,205.53,2452888
2990,120.05,1545614
2991,85.89,1208315
2992,117.01,1563785
2993,135.2,1855351
2994,143.05,1880629
2995,136.2,1835218
2996,143.91,1881650
2997,175.81,2229498
2998,147.4,1909413
2999,124.66,1727486
3000,116.95,1609884
3001,179.37,2251714
3002,148.73,1891980
3003,101.95,1483125
3004,114.98,1555612
3005,172.42,2239265
3006,162.68,2098921
3007,64.76,1004423
3008,91.97,1248592
3009,139.1,1754430
3010,111.59,1393666
3011,142.92,1889487
3012,80.31,1084238
3013,165.91,2065143
3014,117.44,1472014
3015,126.08,1619910
3016,94.22,1258149
3017,172.61,2130659
3018,127.41,1520086
3019,135.38,1741602
3020,94.58,1275093
3021,176.63,2242711
3022,125.06,1705176
3023,77.66,1169443
3024,162.45,2117835
3025,175.98,2274603
3026,183.19,2183237
3027,164.05,2163131
3028,187.97,2273649
3029,197.19,2512974
3030,190.79,2339411
3031,171.81,2352055
3032,203.46,2610836
3033,210.37,2577715
3034,220.01,2555461
3035,168.92,2154242
3036,177.53,2180992
3037,153.59,2061376
3038,199.55,2455257
3039,92.94,1417496
3040,122.07,1659916
3041,173.16,2222452
3042,122.46,1598346
3043,148.31,1938915
3044,111.72,1486503
3045,217.82,2848020
3046,132.03,1730530
3047,153.4,2007939
3048,139.99,1818891
3049,177.61,2214164
3050,130.67,1734009
3051,132.47,1888535
3052,121.71,1590943
3053,186.49,2374061
3054,101.12,1475331
3055,81.64,1288846
3056,61.78,978667
3057,89.39,1331650
3058,59.22,901908
3059,84.02,1285982
3060,72.01,1062048
3061,87.89,1309882
3062,92.42,1379680
3063,60.27,973845
3064,61.36,913141
3065,89.17,1311111
3066,76.48,1120669
3067,60.39,952620
3068,61.47,933813
3069,88.33,1324171
3070,79.29,1255153
3071,52.42,885007
3072,30.38,434823
3073,77.17,1032422
3074,43.08,576486
3075,124.98,1596792
3076,35.41,477693
3077,88.8,1138870
3078,55.2,759269
3079,71.92,1043586
3080,42.52,571023
3081,82.92,1081136
3082,57.37,754953
3083,105.09,1401539
3084,26.66,393274
3085,109.96,1384849
3086,58.03,807635
3087,22.85,379243
3088,68.06,926530
3089,86.29,1182297
3090,76.23,1011378
3091,135.4,1722675
3092,68.26,892092
3093,142.78,1816742
3094,99.93,1252041
3095,112.09,1516416
3096,80.31,1018381
3097,103.35,1347899
3098,108.93,1308860
3099,173.56,2218936
3100,77.19,1048241
3101,137.2,1712854
3102,86.14,1125022
3103,43.8,706376
3104,43.36,580312
3105,84.34,1066398
3106,43.21,571150
3107,114.22,1446406
3108,46.02,599016
3109,118.77,1417176
3110,61.14,812299
3111,91.83,1243894
3112,48.15,633050
3113,98.86,1210867
3114,55.35,704356
3115,131.27,1609401
3116,43.98,593220
3117,102.97,1261721
3118,62.32,834476
3119,28.15,443236
3120,109.65,1404903
3121,149.02,1903212
3122,123.15,1469670
3123,133.4,1730408
3124,101.55,1293661
3125,216.45,2631238
3126,149.94,1811980
3127,161.58,2009264
3128,107.25,1365420
3129,178.39,2189570
3130,168.6,2011321
3131,181.79,2235086
3132,105.02,1385251
3133,183.45,2229821
3134,124.5,1636214
3135,60.07,894876
3136,31.45,427254
3137,65.63,903346
3138,43.25,587133
3139,102.82,1313406
3140,34.06,463045
3141,87.04,1140511
3142,50.42,678504
3143,68.18,927703
3144,37.61,503488
3145,85.85,1111386
3146,59.89,769564
3147,110.98,1417269
3148,31.9,454113
3149,95.0,1225586
3150,61.8,845187
3151,20.23,329279
3152,101.64,1321886
3153,135.27,1723673
3154,111.24,1361268
3155,168.76,1971172
3156,109.66,1407261
3157,114.86,1474030
3158,137.08,1632161
3159,150.71,1887979
3160,107.59,1333389
3161,119.05,1590883
3162,121.6,1406084
3163,199.4,2418575
3164,93.56,1230594
3165,145.0,1791819
3166,137.7,1713314
3167,56.21,822084
3168,66.07,849430
3169,87.56,1096201
3170,67.93,896329
3171,135.3,1637509
3172,53.76,718250
3173,138.02,1670244
3174,59.49,777723
3175,93.37,1273280
3176,55.61,711742
3177,104.64,1265298
3178,67.51,869015
3179,152.77,1932050
3180,53.15,684304
3181,139.91,1663373
3182,74.43,983046
3183,38.24,612287
3184,70.12,1011346
3185,119.74,1617199
3186,79.06,1115686
3187,165.51,2055601
3188,78.5,1101902
3189,161.76,2044221
3190,109.15,1408245
3191,118.38,1614491
3192,87.01,1144593
3193,139.81,1773046
3194,106.09,1438489
3195,129.66,1750119
3196,68.32,971049
3197,175.75,2217694
3198,94.97,1321407
3199,55.7,860568
3200,37.93,514308
3201,77.71,1029960
3202,41.56,575270
3203,96.35,1275758
3204,33.67,453364
3205,119.75,1467319
3206,57.41,711303
3207,101.7,1292075
3208,35.99,483784
3209,79.49,1027559
3210,60.14,753634
3211,107.15,1423837
3212,40.62,542707
3213,112.12,1400203
3214,63.61,858827
3215,29.54,479371
3216,92.86,1194215
3217,107.67,1452489
3218,90.71,1146065
3219,176.85,2136450
3220,96.13,1221755
3221,159.13,1911202
3222,115.51,1410804
3223,147.53,1867626
3224,90.74,1086957
3225,107.23,1338894
3226,122.41,1433334
3227,211.49,2528576
3228,83.07,1074000
3229,156.68,1872849
3230,103.28,1325781
3231,47.16,711680
3232,52.81,720706
3233,80.64,1016050
3234,49.16,679064
3235,131.35,1643257
3236,45.41,602562
3237,133.03,1568961
3238,71.07,901944
3239,93.82,1239489
3240,51.66,669702
3241,120.25,1426803
3242,57.28,754038
3243,145.32,1723707
3244,51.96,707861
3245,131.4,1545137
3246,86.1,1069389
3247,32.25,492710
3248,116.8,1485011
3249,150.56,1895198
3250,120.21,1524568
3251,155.71,1943129
3252,111.1,1463065
3253,222.76,2598440
3254,134.62,1737606
3255,132.61,1696219
3256,101.89,1326644
3257,190.3,2245795
3258,135.43,1661001
3259,136.61,1795396
3260,112.86,1463942
3261,198.77,2303977
3262,133.32,1739956
3263,62.14,958546
3264,35.25,496880
3265,54.66,757147
3266,44.44,585838
3267,110.04,1413794
3268,34.62,472629
3269,85.97,1133138
3270,53.95,725730
3271,69.86,959125
3272,36.27,504583
3273,87.04,1139221
3274,51.71,668297
3275,104.13,1346418
3276,35.06,491251
3277,102.27,1315607
3278,49.88,681551
3279,23.29,387215
3280,103.53,1321503
3281,136.8,1760053
3282,112.12,1419224
3283,172.02,2103019
3284,96.38,1238302
3285,148.73,1880458
3286,115.19,1374005
3287,167.22,2041821
3288,99.31,1282454
3289,160.77,1932962
3290,123.33,1460781
3291,178.97,2203186
3292,93.38,1237008
3293,143.67,1829156
3294,129.67,1650267
3295,63.78,929647
3296,53.77,737042
3297,94.09,1279208
3298,65.03,894280
3299,132.27,1735160
3300,51.71,710405
3301,122.46,1589852
3302,66.81,896863
3303,90.44,1224615
3304,58.03,808372
3305,106.29,1335670
3306,75.11,956980
3307,123.06,1658215
3308,62.42,880593
3309,131.74,1653862
3310,56.47,808422
3311,35.81,599015
3312,22.82,382675
3313,45.63,725795
3314,26.05,412393
3315,75.96,1121724
3316,22.49,367066
3317,74.36,1018180
3318,38.45,608734
3319,57.49,883383
3320,27.2,440525
3321,59.96,890060
3322,34.82,540273
3323,79.9,1190474
3324,19.6,331037
3325,70.95,1021142
3326,33.65,564755
3327,56.03,835524
3328,68.25,979907
3329,126.24,1665948
3330,94.74,1219909
3331,148.05,1915570
3332,89.6,1140557
3333,123.87,1554518
3334,115.51,1448548
3335,150.38,1969257
3336,78.27,1062129
3337,143.13,1898515
3338,114.99,1465075
3339,220.39,2862236
3340,82.92,1078600
3341,111.11,1449281
3342,102.37,1366384
3343,62.45,968215
3344,115.02,1551018
3345,105.75,1469990
3346,136.2,1683810
3347,191.46,2372563
3348,122.14,1558779
3349,142.18,1902635
3350,143.02,1688590
3351,167.78,2197910
3352,131.6,1718855
3353,138.65,1823002
3354,168.85,2055222
3355,225.46,2770138
3356,132.52,1714862
3357,143.54,1969643
3358,124.62,1571390
3359,93.61,1486346
3360,93.73,1246774
3361,128.93,1630729
3362,92.97,1226814
3363,161.3,2026386
3364,101.39,1293819
3365,145.91,1857920
3366,107.14,1354051
3367,162.76,2087746
3368,98.29,1247460
3369,146.03,1837393
3370,116.48,1466220
3371,182.5,2164941
3372,101.07,1235389
3373,132.23,1662656
3374,118.09,1545894
3375,66.94,957532
3376,140.07,1825670
3377,184.47,2382027
3378,156.68,2011446
3379,139.26,1880452
3380,182.87,2259029
3381,199.29,2411480
3382,186.15,2196788
3383,166.97,2216791
3384,181.99,2263247
3385,208.6,2627780
3386,193.03,2312219
3387,201.54,2536034
3388,173.51,2103844
3389,116.98,1595311
3390,171.47,2264252
3391,81.08,1226608
3392,80.23,1083826
3393,134.51,1726767
3394,108.81,1361229
3395,163.57,2098243
3396,71.79,966600
3397,125.18,1588048
3398,116.06,1440880
3399,147.82,1903203
3400,100.95,1284239
3401,167.1,2025759
3402,134.28,1633626
3403,191.67,2420929
3404,89.15,1189298
3405,108.62,1443252
3406,110.07,1396215
3407,63.04,958951
3408,123.83,1605856
3409,137.28,1755869
3410,133.18,1710720
3411,162.33,2091402
3412,121.18,1564156
3413,139.81,1791589
3414,172.64,2077210
3415,170.79,2143331
3416,130.93,1715589
3417,148.41,1970117
3418,139.3,1667446
3419,185.76,2370898
3420,144.76,1760025
3421,106.41,1457819
3422,146.07,1811212
3423,66.84,1061265
3424,112.36,1429395
3425,151.63,1851198
3426,122.7,1577423
3427,207.81,2575374
3428,117.43,1423219
3429,155.03,1917276
3430,112.97,1471609
3431,189.33,2263889
3432,120.47,1466264
3433,174.7,2073347
3434,133.21,1610459
3435,219.13,2515931
3436,135.8,1679321
3437,126.88,1656084
3438,119.08,1552463
3439,72.86,1064424
3440,153.6,1928527
3441,164.18,2138394
3442,157.9,2075015
3443,145.3,1972017
3444,142.16,1824675
3445,181.02,2214753
3446,171.68,2181442
3447,144.81,1940799
3448,145.68,1948731
3449,202.84,2540233
3450,160.01,1956021
3451,141.86,1968677
3452,151.65,1912443
3453,129.54,1745866
3454,146.09,1889849
3455,100.71,1477334
3456,87.08,1114740
3457,117.0,1576151
3458,125.73,1536204
3459,176.7,2192209
3460,94.07,1180410
3461,139.53,1745122
3462,116.0,1458749
3463,144.85,1916531
3464,85.03,1129383
3465,151.73,1903845
3466,117.27,1439886
3467,189.54,2339600
3468,87.97,1155354
3469,114.21,1498290
3470,106.73,1435835
3471,74.13,1144268
3472,113.6,1580896
3473,137.56,1867191
3474,158.08,1992852
3475,173.51,2283878
3476,158.29,1919378
3477,143.09,1823897
3478,176.51,2165750
3479,181.12,2230933
3480,138.3,1787259
3481,136.48,1876466
3482,193.6,2246884
3483,231.32,2861410
3484,148.35,1795401
3485,127.97,1776158
3486,170.49,2031620
3487,78.15,1197901
3488,129.23,1661157
3489,134.21,1698736
3490,116.71,1463802
3491,187.19,2224802
3492,137.41,1590001
3493,156.85,1893283
3494,116.44,1473529
3495,198.65,2290692
3496,104.54,1274984
3497,158.79,1879474
3498,103.51,1356926
3499,226.41,2619916
3500,126.66,1541111
3501,124.14,1543800
3502,128.85,1689744
3503,78.62,1134223
3504,148.87,1931506
3505,211.14,2741883
3506,180.21,2229346
3507,140.08,1913200
3508,195.75,2406223
3509,213.4,2580512
3510,195.67,2392935
3511,164.62,2192418
3512,181.01,2237780
3513,246.42,3087324
3514,184.67,2286756
3515,185.45,2360567
3516,188.31,2273880
3517,157.9,2107180
3518,176.03,2256747
3519,89.45,1269981
3520,84.48,1122946
3521,146.09,1806923
3522,98.34,1235503
3523,196.42,2343848
3524,82.71,1120433
3525,145.48,1819916
3526,112.89,1421605
3527,176.13,2309326
3528,95.68,1245377
3529,163.58,1986019
3530,112.03,1364021
3531,221.03,2668546
3532,79.89,1081739
3533,121.1,1608524
3534,116.0,1492798
3535,81.64,1181406
3536,102.74,1385607
3537,141.06,1810638
3538,128.28,1613668
3539,162.24,2161013
3540,102.0,1379937
3541,141.49,1890818
3542,131.42,1670763
3543,144.31,1905085
3544,137.13,1769328
3545,128.39,1700692
3546,128.25,1585696
3547,172.76,2321558
3548,119.03,1539665
3549,100.86,1442101
3550,122.09,1580652
3551,65.29,978525
3552,113.23,1517152
3553,130.09,1664258
3554,110.61,1437097
3555,177.17,2316943
3556,107.64,1390146
3557,149.9,1900239
3558,157.29,1961593
3559,174.5,2215577
3560,120.77,1530229
3561,137.75,1827594
3562,133.39,1670248
3563,182.25,2422901
3564,124.6,1537917
3565,116.59,1589083
3566,107.96,1444808
3567,75.22,1162485
3568,50.41,812029
3569,72.72,1070828
3570,69.3,1053586
3571,82.45,1292893
3572,57.59,841468
3573,74.96,1117867
3574,86.06,1198949
3575,82.69,1275765
3576,47.26,762313
3577,89.39,1358686
3578,78.41,1092673
3579,94.38,1444613
3580,66.52,987151
3581,60.1,958465
3582,76.3,1111357
3583,74.69,1127038
3584,49.21,692444
3585,69.59,998564
3586,66.74,927884
3587,119.39,1617736
3588,48.98,690367
3589,117.33,1525676
3590,66.28,910318
3591,105.06,1426043
3592,46.72,681656
3593,102.39,1415843
3594,65.29,899392
3595,135.96,1825164
3596,47.93,683352
3597,127.97,1732710
3598,52.44,771189
3599,36.43,593130
3600,79.77,1117521
3601,75.3,1031383
3602,90.5,1207666
3603,163.54,1998447
3604,87.41,1181121
3605,134.45,1660716
3606,89.0,1182825
3607,131.72,1777191
3608,84.87,1139162
3609,116.07,1454486
3610,103.04,1307282
3611,155.41,1982015
3612,88.27,1160736
3613,149.12,1813178
3614,70.52,971076
3615,49.02,815353
3616,57.86,824616
3617,88.25,1177640
3618,48.18,659373
3619,115.39,1549880
3620,62.31,833747
3621,135.49,1725918
3622,72.65,998187
3623,100.17,1398370
3624,64.22,831607
3625,106.15,1355475
3626,67.55,924582
3627,145.88,1916368
3628,62.28,834077
3629,121.77,1505669
3630,48.89,737866
3631,41.16,689223
3632,133.53,1708105
3633,152.66,1916723
3634,140.78,1739050
3635,146.08,1916785
3636,137.17,1745655
3637,230.53,2732113
3638,145.57,1805979
3639,168.43,2164351
3640,145.09,1806847
3641,179.74,2177961
3642,148.86,1864281
3643,200.4,2442607
3644,125.73,1609104
3645,153.99,2119915
3646,117.47,1591126
3647,77.99,1157668
3648,55.08,746751
3649,91.42,1181268
3650,65.33,870530
3651,140.74,1773394
3652,48.12,664082
3653,132.1,1616248
3654,73.24,962811
3655,117.21,1520019
3656,52.18,699493
3657,110.82,1404953
3658,64.41,865402
3659,143.59,1832993
3660,55.57,770850
3661,125.52,1604747
3662,60.99,836637
3663,36.67,592259
3664,117.01,1606186
3665,129.08,1659653
3666,124.0,1586566
3667,206.73,2601007
3668,111.3,1398458
3669,123.74,1597016
3670,153.16,1830914
3671,181.49,2226406
3672,118.72,1545345
3673,125.94,1618146
3674,138.77,1634491
3675,188.75,2427487
3676,135.02,1701831
3677,165.31,1983192
3678,122.26,1567679
3679,76.06,1090009
3680,59.3,820224
3681,93.52,1212818
3682,61.06,821933
3683,143.69,1896361
3684,59.56,804413
3685,124.97,1575137
3686,65.02,933684
3687,97.5,1383917
3688,70.82,941815
3689,109.88,1386805
3690,73.32,963051
3691,136.85,1783668
3692,60.37,830940
3693,116.99,1527722
3694,65.52,935233
3695,34.71,572010
3696,89.37,1323721
3697,116.65,1644603
3698,107.62,1420226
3699,165.39,2281856
3700,102.55,1399709
3701,154.89,1966560
3702,121.75,1662685
3703,121.77,1671257
3704,93.19,1313422
3705,142.12,1781462
3706,104.74,1421554
3707,154.5,2015006
3708,107.14,1470571
3709,168.86,2159131
3710,93.56,1351372
3711,63.77,991032
3712,49.95,703180
3713,89.15,1194593
3714,59.81,774874
3715,136.77,1807541
3716,47.17,652574
3717,120.22,1536828
3718,59.16,790102
3719,105.27,1476462
3720,51.14,709015
3721,103.12,1362996
3722,69.46,905303
3723,143.98,1868034
3724,54.29,753986
3725,129.44,1753865
3726,69.3,988748
3727,36.01,600121
3728,105.11,1422271
3729,110.99,1495093
3730,106.29,1337327
3731,178.47,2260458
3732,105.31,1302976
3733,161.07,2057710
3734,113.07,1459118
3735,147.62,1933908
3736,93.03,1221824
3737,110.85,1479003
3738,135.28,1649702
3739,197.78,2487350
3740,107.56,1376290
3741,183.45,2121240
3742,101.43,1374593
3743,68.05,1027954
3744,65.32,912882
3745,96.44,1215844
3746,64.24,860681
3747,148.79,1893865
3748,82.89,1040769
3749,150.62,1788322
3750,69.12,939316
3751,119.53,1579710
3752,77.92,989376
3753,116.61,1488163
3754,73.83,978215
3755,160.61,2030250
3756,76.12,995285
3757,157.79,1932272
3758,56.92,799966
3759,39.92,646276
3760,136.76,1837634
3761,150.56,1971555
3762,132.85,1762441
3763,160.89,2097185
3764,149.04,1920320
3765,187.77,2468940
3766,133.69,1784638
3767,148.5,2074948
3768,137.92,1784819
3769,191.55,2326017
3770,154.43,1979918
3771,157.29,2067470
3772,145.13,1868365
3773,232.94,2942440
3774,119.73,1648853
3775,84.32,1261749
3776,69.71,943779
3777,85.38,1133279
3778,64.8,843737
3779,147.66,1830811
3780,50.5,702295
3781,128.92,1652132
3782,63.5,867745
3783,106.13,1384517
3784,53.28,721505
3785,101.26,1312808
3786,72.32,965087
3787,130.91,1722038
3788,55.32,758072
3789,120.78,1497238
3790,58.98,838721
3791,42.48,681518
3792,112.68,1499224
3793,132.82,1685459
3794,135.35,1711347
3795,178.73,2189927
3796,122.29,1544660
3797,161.34,1981698
3798,130.5,1609027
3799,190.47,2331823
3800,147.36,1838786
3801,157.61,1990002
3802,118.08,1476887
3803,204.33,2626754
3804,132.38,1688118
3805,157.0,2022336
3806,115.07,1588244
3807,76.69,1130249
3808,56.68,812029
3809,74.48,1042146
3810,60.48,862020
3811,116.86,1557981
3812,56.51,774911
3813,132.34,1687242
3814,59.06,801971
3815,101.52,1446498
3816,59.35,827338
3817,111.7,1425773
3818,67.86,932283
3819,119.94,1655998
3820,51.28,742283
3821,116.02,1518912
3822,59.0,836489
3823,37.87,648060
3824,34.77,592676
3825,49.13,781046
3826,40.4,649517
3827,80.99,1211760
3828,39.47,614888
3829,74.89,1089083
3830,36.44,595090
3831,68.16,1121030
3832,34.68,570239
3833,64.37,986808
3834,52.0,811892
3835,80.53,1240795
3836,38.17,604814
3837,83.47,1246166
3838,36.81,622431
3839,60.79,949903
3840,17.21,314502
3841,41.27,700354
3842,22.91,386144
3843,61.58,954548
3844,21.41,350246
3845,56.91,898717
3846,30.7,520278
3847,47.42,784927
3848,19.87,342835
3849,51.58,817996
3850,31.23,499089
3851,59.92,962537
3852,20.84,351813
3853,59.54,944025
3854,36.99,630963
3855,36.78,629103
3856,33.34,565608
3857,34.31,598166
3858,43.65,688937
3859,79.95,1236187
3860,41.06,659728
3861,74.38,1112335
3862,54.46,849721
3863,74.71,1215198
3864,43.85,753546
3865,52.31,825499
3866,57.79,863001
3867,92.45,1440723
3868,41.36,667411
3869,82.91,1264264
3870,51.12,791926
3871,54.22,919551
3872,24.9,417047
3873,48.68,744612
3874,24.42,413027
3875,62.37,923927
3876,34.99,530685
3877,62.92,943998
3878,40.33,659393
3879,59.8,903098
3880,27.53,436161
3881,68.73,1050909
3882,37.06,553151
3883,63.63,993909
3884,29.2,474007
3885,68.28,1009679
3886,44.06,711315
3887,54.02,870989
3888,58.59,930177
3889,73.6,1144222
3890,62.45,953549
3891,59.7,965421
3892,64.48,952299
3893,95.58,1389723
3894,81.92,1207019
3895,80.04,1249421
3896,65.01,991015
3897,92.11,1337364
3898,76.98,1158035
3899,71.47,1066208
3900,60.4,926501
3901,72.03,1095631
3902,77.62,1188683
3903,79.47,1245750
3904,23.23,377744
3905,42.2,696336
3906,31.07,496446
3907,77.71,1103087
3908,22.65,379225
3909,64.74,972616
3910,36.9,593311
3911,58.4,892088
3912,23.51,371755
3913,51.52,782737
3914,31.72,492165
3915,72.63,1107792
3916,23.73,377180
3917,73.96,1082538
3918,32.81,558581
3919,37.87,641774
3920,53.15,790656
3921,70.5,1102271
3922,60.4,901462
3923,94.38,1373899
3924,55.05,810890
3925,57.75,915184
3926,70.75,1037164
3927,98.96,1439455
3928,57.86,867070
3929,75.17,1162763
3930,73.11,1041216
3931,101.24,1545231
3932,68.69,1030836
3933,65.95,1027845
3934,69.5,1047602
3935,79.13,1205357
3936,36.92,607962
3937,56.68,857215
3938,33.92,542540
3939,81.58,1119117
3940,32.65,517544
3941,70.37,1030650
3942,31.45,520206
3943,68.7,1117126
3944,35.27,577943
3945,70.52,1046930
3946,45.37,694635
3947,92.25,1369607
3948,36.47,582790
3949,89.05,1199386
3950,47.49,760151
3951,57.35,933957
3952,44.45,716709
3953,67.31,1077931
3954,47.89,764138
3955,80.73,1223977
3956,49.12,773374
3957,87.12,1367281
3958,63.82,989279
3959,46.57,780313
3960,54.79,870873
3961,78.4,1168213
3962,66.52,986326
3963,68.43,1089305
3964,52.24,799941
3965,89.68,1323569
3966,64.78,991585
3967,37.59,659390
3968,18.72,330219
3969,42.26,700617
3970,28.91,452031
3971,82.11,1206835
3972,23.28,365966
3973,75.81,1141280
3974,36.5,585399
3975,57.13,890904
3976,17.37,301787
3977,55.09,840072
3978,37.48,569877
3979,72.3,1127225
3980,25.05,404115
3981,65.29,997892
3982,39.58,664552
3983,43.75,721127
3984,49.62,786262
3985,57.75,943759
3986,52.23,808994
3987,94.13,1347575
3988,55.97,856474
3989,87.81,1316522
3990,61.35,927362
3991,83.82,1315139
3992,52.16,807659
3993,50.52,818255
3994,65.33,975900
3995,106.89,1491414
3996,45.69,725516
3997,84.33,1270609
3998,66.52,1027837
3999,76.71,1243820
4000,26.19,437756
4001,58.78,893184
4002,32.08,520513
4003,83.92,1189054
4004,30.5,483678
4005,62.76,925862
4006,39.73,629359
4007,66.44,1014337
4008,32.51,522176
4009,61.24,897442
4010,36.46,576278
4011,84.42,1252286
4012,35.6,544360
4013,75.11,1082888
4014,40.84,668489
4015,50.84,793725
4016,57.2,871554
4017,89.73,1338144
4018,86.82,1299228
4019,79.63,1213196
4020,70.2,1051335
4021,109.25,1584420
4022,69.95,1028413
4023,57.53,908078
4024,65.32,993972
4025,97.98,1495413
4026,85.2,1248783
4027,67.44,1056839
4028,66.3,1000041
4029,108.47,1631441
4030,75.33,1148546
4031,64.46,1055491
4032,23.28,385897
4033,42.21,664504
4034,28.66,446288
4035,69.54,1005379
4036,18.85,310105
4037,67.72,978018
4038,39.21,621938
4039,49.19,790188
4040,20.16,333000
4041,58.71,872519
4042,36.96,573683
4043,70.13,1063845
4044,24.24,394537
4045,90.68,1246001
4046,39.12,637666
4047,40.54,654514
4048,53.75,858338
4049,74.71,1129815
4050,70.66,1054621
4051,72.2,1099961
4052,66.72,967723
4053,78.12,1171873
4054,85.55,1198278
4055,88.13,1368031
4056,57.33,884347
4057,87.84,1311675
4058,78.42,1136781
4059,90.3,1356256
4060,54.21,814667
4061,58.56,900961
4062,67.01,1029425
4063,82.8,1251916
4064,30.75,515214
4065,50.04,809950
4066,39.6,648983
4067,90.48,1377239
4068,40.29,650605
4069,74.67,1095930
4070,38.69,634757
4071,65.87,1092152
4072,34.52,568444
4073,67.6,1003399
4074,49.92,764766
4075,77.96,1165998
4076,35.7,587683
4077,75.93,1134802
4078,33.68,575532
4079,58.99,940660
4080,34.4,594957
4081,71.79,1170136
4082,50.9,808443
4083,69.56,1126652
4084,35.66,589123
4085,69.35,1066731
4086,56.29,868264
4087,65.44,1040563
4088,35.71,611703
4089,75.2,1138714
4090,49.48,766107
4091,66.19,1068783
4092,43.53,713451
4093,81.34,1226443
4094,62.44,971057
4095,31.63,582269
