index,time,conflicts
0,1464.63,13156805
1,1661.0,14588860
2,1590.3,14142834
3,1523.86,13494828
4,1724.63,15246694
5,1720.18,14162883
6,1704.0,14920386
7,1446.9,13566649
8,1745.41,14989245
9,1598.99,14549409
10,1792.41,15750923
11,1587.68,13665535
12,1779.8,15372140
13,1600.02,14066303
14,1598.51,13965983
15,1691.63,14840749
16,1653.43,14282552
17,1717.7,14938796
18,1445.1,12663239
19,1774.25,15256500
20,1666.74,14305194
21,1780.13,15725320
22,1839.0,15319005
23,1590.88,14067626
24,1860.53,15848771
25,1720.58,14762752
26,1841.39,15483000
27,1690.78,14382757
28,1608.6,14359908
29,1961.47,16161150
30,1687.42,14605894
31,1676.34,14050415
32,1556.0,13635266
33,1676.54,14527500
34,1662.77,14248204
35,1843.82,15754258
36,1555.01,13315137
37,1632.95,14039724
38,1673.99,14459900
39,1829.12,15525313
40,1669.95,14266123
41,1796.58,15246420
42,1768.2,14965073
43,1650.28,14278713
44,1682.89,14550121
45,1880.69,16011474
46,1782.25,15302373
47,1853.91,16193747
48,1525.35,13930312
49,1714.91,14797320
50,1611.12,14203986
51,1615.51,13966610
52,1619.83,14240796
53,1718.92,14865321
54,1601.15,13664865
55,1477.67,12704089
56,1670.85,14646771
57,1953.65,16604351
58,1651.29,14282308
59,1546.62,13516599
60,1741.3,14712370
61,1628.34,13988570
62,1509.47,13341993
63,1735.05,15243294
64,1602.68,14067192
65,1794.29,15523449
66,1501.78,13089877
67,1681.47,14636507
68,1784.54,15021964
69,1740.44,14790285
70,1630.18,13951572
71,1633.44,14137710
72,1590.08,13726046
73,1615.61,14256419
74,1704.23,14433806
75,1763.98,15030512
76,1704.1,14439603
77,1545.79,13321668
78,1838.45,15298783
79,1742.16,15307488
80,1655.66,14303914
81,1820.69,15562828
82,1423.15,12683120
83,1696.83,14786501
84,1576.16,13475075
85,1723.01,14784450
86,1636.02,14176174
87,1653.7,14275494
88,1598.46,13511543
89,1930.37,16372305
90,1773.16,15266799
91,1695.09,14462965
92,1813.43,14947774
93,1779.39,15224788
94,1719.68,14897714
95,1684.91,14460207
96,1528.43,13557790
97,1898.17,16441880
98,1586.06,13883696
99,1614.42,14077140
100,1551.8,13562865
101,1995.3,16369938
102,1541.45,13444961
103,1624.49,14118061
104,1699.55,14375816
105,1874.87,15773499
106,1706.36,14384038
107,1782.39,14970435
108,1889.8,15886584
109,1883.81,15667643
110,1739.08,15355089
111,1797.78,15210388
112,1523.39,13431184
113,1745.7,14556298
114,1531.04,13766554
115,1519.7,13263689
116,1475.28,12885281
117,1672.58,14351113
118,1583.53,13531088
119,1676.89,14538282
120,1773.57,15074740
121,1929.58,15821296
122,1691.39,14299600
123,1621.29,14429930
124,1568.74,13540317
125,1760.85,15087587
126,1766.16,15389415
127,1736.48,14665693
128,1677.65,14500841
129,1667.91,14454753
130,1713.08,14601732
131,1672.53,14491658
132,1788.15,15327200
133,1800.21,14948230
134,1836.27,15093905
135,1964.11,16511817
136,1550.62,13751345
137,1845.45,15694320
138,1730.53,14586532
139,1498.74,12788448
140,1659.06,14439717
141,1886.67,16012447
142,1712.36,14336668
143,1756.81,14965131
144,1685.52,14261193
145,1908.92,15979878
146,1451.69,12378820
147,1662.79,14517731
148,1668.45,13959335
149,1683.45,14084609
150,1724.42,14495674
151,1614.44,14137172
152,1669.84,14745580
153,1690.32,14812848
154,1914.58,15853384
155,1597.07,13876171
156,1768.35,14833988
157,1702.83,14522574
158,1920.2,16297922
159,1845.4,15833700
160,1794.14,15052419
161,1829.4,15861735
162,2041.66,16691592
163,1754.03,15313276
164,1765.41,15181485
165,1781.5,14898735
166,1821.3,15015034
167,1705.05,14599129
168,1825.79,15321266
169,1558.23,13755192
170,1936.42,15929512
171,1640.21,14250810
172,1611.76,13960756
173,1803.95,14708168
174,1759.8,15395255
175,1811.04,15633894
176,1588.32,13391996
177,1842.43,15665700
178,1670.64,14363965
179,1579.82,14017230
180,1539.7,13746240
181,1711.01,15039163
182,1586.44,14058969
183,1616.52,14268892
184,1675.3,14577493
185,1890.57,15394868
186,1487.69,12859365
187,1610.39,13856271
188,1645.63,14132384
189,1676.39,14986960
190,1691.76,14248339
191,1598.58,14100421
192,1709.31,15264930
193,1659.62,14368534
194,1792.17,15160286
195,1804.09,15170934
196,1837.41,15726722
197,1650.53,14501167
198,1805.7,14815648
199,1665.02,13775766
200,1609.09,14255295
201,1751.5,14735091
202,1577.82,13721445
203,1695.38,14900271
204,1601.57,13854248
205,1796.5,15558261
206,1761.64,15519517
207,1747.59,14803650
208,1644.03,14568290
209,1831.21,15493262
210,1672.15,13944269
211,1711.24,14796326
212,1603.54,14199547
213,1909.71,16231763
214,1642.18,14313415
215,1713.13,14973244
216,1724.92,14844895
217,1668.26,14327312
218,1875.12,15712228
219,1825.02,15406253
220,1700.4,14321976
221,1765.73,14645526
222,1680.24,14371091
223,1672.81,14008410
224,1644.72,13893646
225,1826.85,15412557
226,1686.68,14412816
227,1741.99,14685866
228,1800.82,14921053
229,1823.75,14995045
230,1745.38,14540751
231,1695.14,14621514
232,1824.82,15274463
233,1865.24,16353016
234,2012.21,16389440
235,1819.66,15927479
236,1778.29,14313986
237,1763.56,14950366
238,1652.2,14209022
239,1855.54,15464156
240,1569.17,14230104
241,1695.29,14553305
242,1871.35,15960754
243,1822.86,15775113
244,1679.69,14248055
245,1739.46,14738342
246,1659.36,14500389
247,1640.54,14110600
248,1675.52,14764748
249,1809.83,15304023
250,1763.95,15504894
251,1491.18,13197574
252,1565.76,13598055
253,1646.0,14148536
254,1599.84,13439823
255,1747.12,14970106
256,1391.48,12543240
257,1638.21,14183166
258,1398.3,12624096
259,1429.64,12874107
260,1437.57,13024912
261,1414.23,12024946
262,1607.75,13776328
263,1471.08,12865526
264,1600.32,14180883
265,1617.66,14362730
266,1452.11,12698549
267,1653.74,14468233
268,1601.87,13975327
269,1568.32,13467374
270,1667.78,14329546
271,1543.75,13140073
272,1647.92,13983946
273,1805.73,15036506
274,1497.52,12990112
275,1475.61,12843085
276,1581.73,13202796
277,1641.02,13784157
278,1630.21,14140820
279,1603.68,14316813
280,1685.52,14298557
281,1687.22,14392659
282,1464.98,12798989
283,1595.91,13953942
284,1507.19,13278482
285,1722.92,14630071
286,1552.83,13277829
287,1754.31,14975933
288,1666.16,13573590
289,1585.87,13940926
290,1442.75,12573355
291,1554.56,13371348
292,1286.61,11357647
293,1926.53,15715631
294,1342.33,11648478
295,1429.56,12583254
296,1591.7,13613793
297,1525.96,13060669
298,1558.87,13580976
299,1586.81,13933985
300,1533.24,13277622
301,1472.56,12757946
302,1560.87,13264011
303,1659.62,14464739
304,1360.29,11737354
305,1419.4,12528588
306,1511.13,13179494
307,1615.36,13882279
308,1422.48,13079468
309,1661.89,14248812
310,1649.97,14180003
311,1723.76,14532024
312,1513.29,13033966
313,1599.59,13900617
314,1577.42,13713033
315,1437.97,12208528
316,1665.18,14341566
317,1740.34,14648131
318,1747.72,14721754
319,1793.76,15168188
320,1375.67,12053937
321,1553.52,12977553
322,1403.26,12199019
323,1542.3,12816079
324,1436.39,12238341
325,1552.73,13733052
326,1386.2,12736665
327,1606.28,13742727
328,1748.92,15199185
329,1774.55,15230868
330,1519.36,13054781
331,1541.01,13395902
332,1523.04,13559526
333,1752.61,14916951
334,1597.11,13621945
335,1743.08,14717132
336,1597.88,13578624
337,1688.7,14232476
338,1492.05,12874717
339,1609.36,14071340
340,1430.17,12474595
341,1564.33,13598154
342,1496.95,12965437
343,1386.62,11959893
344,1588.31,13671220
345,1818.73,14776550
346,1605.36,13746285
347,1615.71,13845045
348,1683.64,14383928
349,1918.5,15516111
350,1554.68,13345064
351,1504.79,12653882
352,1510.01,13230330
353,1649.33,14223908
354,1545.67,13222176
355,1596.28,13875527
356,1460.08,12355284
357,1561.95,13334771
358,1350.05,11656928
359,1522.54,13368200
360,1474.3,12970148
361,1926.32,16086458
362,1507.3,12939272
363,1689.08,14268970
364,1604.19,13664269
365,1814.48,15471167
366,1571.69,13272860
367,1854.44,15271602
368,1587.56,13774629
369,1579.0,13660860
370,1500.98,12929978
371,1626.07,13673934
372,1591.13,13487015
373,1535.54,13265398
374,1428.79,12300595
375,1689.46,14261781
376,1490.72,12972045
377,1521.91,13342844
378,1622.29,13967307
379,1832.48,15576828
380,1564.37,13724309
381,1716.09,14652155
382,1794.74,15204582
383,1576.8,14024753
384,1560.3,13336052
385,1554.83,13500252
386,1572.72,13116352
387,1679.11,14156216
388,1467.6,12808806
389,1658.79,14270145
390,1607.42,13641995
391,1782.62,15039598
392,1622.21,13999918
393,1711.24,14263403
394,1578.48,13722168
395,1709.11,14470707
396,1583.12,13704033
397,1653.66,14032597
398,1663.77,13871665
399,1738.95,15110491
400,1458.24,13264685
401,1721.98,14764800
402,1673.47,14473901
403,1608.18,13591262
404,1545.68,13191592
405,1637.69,13980927
406,1439.51,12895106
407,1845.45,15065719
408,1680.74,14498746
409,1817.18,15097588
410,1581.4,13348536
411,1784.7,15043031
412,1682.9,14347401
413,1881.77,15928821
414,1548.8,13084091
415,1838.25,15282945
416,1452.71,12618410
417,1707.26,14112657
418,1472.9,13109083
419,1579.61,13244734
420,1649.19,14068746
421,1854.97,15621049
422,1586.96,13732818
423,1645.23,13964818
424,1737.42,14638936
425,1941.29,15868775
426,1859.82,15309589
427,1685.32,14876510
428,1527.01,13046886
429,1824.92,15471217
430,1764.08,15085190
431,1616.57,13647101
432,1502.06,13245751
433,1821.25,15381714
434,1637.74,13848958
435,1625.55,14007781
436,1491.37,12859896
437,1676.8,14191731
438,1699.81,14577303
439,1615.96,13557856
440,1510.94,13069657
441,1727.99,14415784
442,1727.94,14805445
443,1638.93,14091545
444,1395.24,12677594
445,1715.84,14359382
446,1538.94,13347857
447,1594.8,13514036
448,1439.74,12338825
449,1529.4,13113588
450,1503.49,13477719
451,1706.61,14257213
452,1435.98,12303894
453,1596.24,13484254
454,1592.52,13634805
455,1687.95,14084831
456,1638.43,14346003
457,1752.26,15395986
458,1711.01,14395169
459,1688.83,13989536
460,1606.75,13647096
461,1582.42,13658863
462,1604.5,13802868
463,1661.62,14298788
464,1505.93,13245023
465,1547.29,13695366
466,1469.39,13202391
467,1681.41,14179070
468,1618.63,13583221
469,1726.22,14853304
470,1605.76,13805143
471,1578.58,13593635
472,1848.81,15740840
473,1703.32,14664533
474,1656.49,13888082
475,1813.93,15634651
476,1609.28,13756761
477,1762.19,14693278
478,1693.13,14201570
479,1631.48,13652011
480,1633.17,13604583
481,1765.78,14774681
482,1632.31,13741928
483,1514.63,13387640
484,1705.87,14458483
485,1722.52,14128014
486,1773.21,14917635
487,1626.06,14501069
488,1687.05,14320150
489,1746.31,15014581
490,1767.67,14911153
491,1674.42,14155839
492,1684.73,14211588
493,1887.8,15347532
494,1603.81,13381896
495,1738.29,14895192
496,1579.44,13935084
497,1880.04,15459853
498,1459.73,13081303
499,1719.94,14532764
500,1702.33,14305984
501,1569.82,13628857
502,1523.25,13003985
503,1632.95,13734775
504,1625.17,14037811
505,1649.8,14063299
506,1489.43,13506928
507,1640.5,13804265
508,1493.63,13097230
509,2043.94,16715695
510,1750.43,15084884
511,1816.36,15738886
512,1683.5,14213976
513,1764.4,15098314
514,1717.63,14746077
515,1696.41,14563170
516,1624.6,13936358
517,1707.98,14820017
518,1695.1,14530523
519,1605.92,13686604
520,1846.48,15107166
521,1749.18,15057427
522,1542.9,13594325
523,1588.67,13572167
524,1793.29,15057872
525,1778.55,15334169
526,1901.41,15883324
527,1729.42,14680012
528,1547.95,13513334
529,1660.03,14589994
530,1674.55,14700043
531,1749.05,14783344
532,1669.15,14233012
533,1759.57,15034103
534,1782.34,15200073
535,1933.07,16009346
536,1597.11,13878583
537,1859.28,15365930
538,1856.05,15420204
539,1781.94,14928483
540,1630.21,14111213
541,1818.26,15284108
542,1765.49,15529658
543,1785.88,14856984
544,1581.57,13733074
545,1762.34,15450339
546,1740.57,15270385
547,1639.77,14404668
548,1595.84,13407053
549,1593.17,14244641
550,1976.77,17190549
551,1869.83,15742897
552,1706.09,15098289
553,1613.97,14012991
554,1875.18,15734389
555,1807.77,15930521
556,1957.88,16669822
557,1777.8,14959898
558,1803.25,15083163
559,1813.2,15492394
560,1708.86,14925231
561,1692.5,14220675
562,1526.24,13572971
563,1570.62,13949025
564,1570.85,13278864
565,1853.58,15507391
566,1528.54,13337342
567,1531.67,13161753
568,1789.82,15368503
569,1864.36,15763622
570,1467.13,12951483
571,1708.33,14909981
572,1788.28,15147648
573,1723.36,15141630
574,1743.71,14601146
575,1571.62,14001593
576,1502.3,13889242
577,1676.43,14415685
578,1568.8,13408227
579,1725.2,14960445
580,1677.42,13972924
581,1633.31,14307418
582,1854.9,15953893
583,1695.6,14666999
584,1773.5,15214194
585,1830.46,15555791
586,1903.56,16391547
587,1795.55,15030152
588,1842.2,15411036
589,1595.95,13914800
590,1627.88,13828349
591,1570.33,13754241
592,1652.25,13963229
593,1695.08,14412596
594,1725.46,14674661
595,1629.5,14525478
596,1687.48,14536287
597,1768.9,15106575
598,1677.71,14711267
599,1874.26,15472834
600,1747.49,14700948
601,1868.05,16056508
602,1683.32,14698759
603,1644.45,14058029
604,1704.81,14577835
605,1806.27,15096448
606,1858.01,15277139
607,1706.08,14522013
608,1740.9,14882389
609,1739.95,14456989
610,1660.02,14277369
611,1946.17,16053122
612,1663.72,14710079
613,1896.68,15959604
614,1592.91,14176468
615,1873.18,16062261
616,1751.73,14992221
617,1835.86,15483372
618,1588.89,13958194
619,1731.77,14883620
620,1807.84,15734651
621,1726.99,14748343
622,1776.55,15413971
623,1650.39,14090202
624,1715.7,15056514
625,1816.3,15486776
626,1581.68,13963958
627,1558.67,13666861
628,1690.55,14876366
629,1616.22,14000816
630,1674.69,14498027
631,1757.31,15170925
632,1674.27,14263653
633,1723.88,14423608
634,1621.29,13618585
635,1703.09,15043564
636,1735.64,14915015
637,1965.39,16500745
638,1749.48,15096857
639,1603.18,14076608
640,1709.28,14653360
641,1899.48,16196049
642,1765.8,14990102
643,1759.22,14832322
644,1826.3,15580076
645,1870.64,15918304
646,1763.87,14916270
647,1776.94,15394307
648,1926.79,15815083
649,1753.68,15183693
650,1719.25,15138580
651,1902.9,16323838
652,1690.68,14558673
653,1939.19,16285037
654,1667.55,14122715
655,1638.01,14618780
656,1871.74,15793323
657,1827.65,14992107
658,1622.84,13903136
659,1776.76,14719909
660,1755.86,14947822
661,1828.69,15197336
662,1792.28,14775570
663,1956.64,16356210
664,1938.25,16215045
665,1797.26,15140108
666,1765.77,14961688
667,2016.99,17046397
668,1766.35,14791565
669,1707.34,14602536
670,1840.81,15616073
671,1859.37,15830167
672,1843.14,15336962
673,1911.88,16289501
674,1895.85,15797448
675,1839.23,15884325
676,1826.27,14856308
677,1963.84,17007776
678,2097.55,16934244
679,1683.21,14323253
680,2001.98,16646854
681,1865.87,15639505
682,1859.44,15989925
683,1742.82,14627610
684,1828.1,15639230
685,1996.86,16798366
686,1863.2,15513609
687,1872.0,15781692
688,1550.69,13500145
689,1728.44,14585575
690,1816.84,15621847
691,1740.19,14471701
692,1720.24,14893687
693,1716.99,15006575
694,1708.49,14487363
695,1733.98,14516441
696,1597.22,13676509
697,1776.19,15055494
698,1842.81,15607120
699,1633.13,14106243
700,1687.58,14308994
701,1713.84,14500285
702,1795.04,15301131
703,1596.75,13922835
704,1932.67,15774163
705,1668.06,14251186
706,1690.05,14451570
707,1760.82,15030196
708,1702.8,14990236
709,1974.06,15923783
710,1916.53,15093592
711,1820.53,15233851
712,1819.94,15511228
713,1907.9,15949443
714,1711.6,14749954
715,1952.23,16134846
716,1787.99,15167740
717,1744.89,15191209
718,1856.74,15237696
719,1608.9,14055269
720,1774.09,15281829
721,1694.73,14287009
722,1668.28,14696786
723,1745.29,14943215
724,1516.91,13811462
725,1655.3,14399551
726,1757.35,14924320
727,1781.95,15275194
728,1764.86,15142557
729,1765.09,14939115
730,1886.44,16278354
731,1816.05,15573821
732,1715.53,14540878
733,1913.51,16430774
734,1927.91,16069473
735,1627.29,14240939
736,1901.27,15688086
737,1797.97,15282813
738,1707.77,14227677
739,1703.34,14337571
740,2116.92,17282453
741,1811.84,15527610
742,1779.78,14882751
743,1871.73,15905026
744,1701.32,14778385
745,1800.95,15620562
746,1788.38,15528746
747,1669.59,14605374
748,1762.88,15226808
749,1919.02,16167787
750,1875.89,15610034
751,1733.18,14863128
752,1670.46,14800138
753,1750.86,14904405
754,1760.06,14961569
755,1579.22,14022253
756,1536.12,13639232
757,1886.14,15393163
758,1447.56,12802244
759,1608.86,14030079
760,1818.87,15308342
761,1852.78,15472149
762,1724.05,14653769
763,1823.83,15072297
764,1710.27,14598372
765,1640.25,14313165
766,1758.01,15344128
767,1727.63,15009717
768,1495.32,13202883
769,1647.53,14342435
770,1451.12,12651409
771,1570.43,13415046
772,1606.26,14116702
773,1472.9,12716816
774,1401.15,12571486
775,1522.32,13140531
776,1530.97,13567425
777,1473.55,12936332
778,1347.22,12080080
779,1410.54,12306243
780,1622.02,13897639
781,1601.94,13718444
782,1406.33,12442547
783,1529.34,13188694
784,1579.81,13995123
785,1654.01,14906517
786,1367.68,12318335
787,1652.09,14149790
788,1583.9,13762938
789,1867.75,15565108
790,1527.31,13033345
791,1826.93,15502368
792,1706.39,14837717
793,1736.18,14419478
794,1565.85,13665590
795,1738.31,15046010
796,1522.81,13591732
797,1863.54,15943939
798,1544.69,13371514
799,1834.18,15203524
800,1334.73,11901053
801,1553.49,13137682
802,1540.86,13716909
803,1494.23,13707898
804,1528.45,13265784
805,1611.94,13840140
806,1449.42,12799290
807,1469.8,12931740
808,1631.75,13993950
809,1523.37,12945644
810,1711.3,14523757
811,1740.29,15151229
812,1568.02,13423681
813,1529.56,13279785
814,1575.59,13726362
815,1657.37,14601128
816,1681.91,14363566
817,1581.14,13410809
818,1504.44,13374589
819,1751.94,14775549
820,1316.04,11642219
821,1714.88,14963556
822,1376.72,12196361
823,1629.62,13952308
824,1453.85,12608474
825,1800.3,15515191
826,1664.94,14298478
827,1551.33,13853318
828,1625.43,14488538
829,1776.95,14784920
830,1490.77,13124021
831,1788.37,15534790
832,1249.8,11328165
833,1445.05,12444436
834,1522.76,13342506
835,1440.19,12508150
836,1639.65,14293664
837,1631.88,13870492
838,1381.03,12349896
839,1602.42,14017439
840,1514.18,12994232
841,1658.42,14545596
842,1572.47,13449142
843,1452.77,12567123
844,1525.55,13419895
845,1526.95,12965867
846,1608.97,13658207
847,1573.53,13718292
848,1584.74,13865530
849,1724.54,14610052
850,1413.93,12248490
851,1559.35,13854053
852,1567.04,13172888
853,1558.59,13193157
854,1675.54,13898109
855,1692.13,14695035
856,1760.94,14365495
857,1785.91,14789002
858,1658.0,14062859
859,1642.33,14061253
860,1713.51,14582367
861,1573.09,13528272
862,1666.06,14431873
863,1832.91,15104952
864,1384.86,12167846
865,1517.78,13467805
866,1666.63,14232032
867,1700.89,14316153
868,1457.58,12882300
869,1520.97,12609785
870,1332.94,11580292
871,1669.92,13960735
872,1664.51,14622783
873,1793.36,14938920
874,1823.16,15291284
875,1620.79,14254238
876,1478.73,13007226
877,1557.55,13373999
878,1637.72,14044272
879,1430.79,12506173
880,1587.52,13828044
881,1573.12,13737063
882,1572.73,13582409
883,1471.2,12771816
884,1599.83,13949303
885,1542.25,13513215
886,1658.73,13981935
887,1568.66,13128768
888,1498.03,12804627
889,1629.16,14057267
890,1404.43,12495072
891,1538.13,13147233
892,1630.08,13584809
893,1719.99,14526715
894,1435.99,12603504
895,1666.31,14470126
896,1446.1,13053786
897,1666.4,14575775
898,1474.65,13003600
899,1529.91,13674418
900,1599.68,13702846
901,1802.28,15019648
902,1377.85,12138313
903,1695.5,14078856
904,1619.33,14418321
905,1546.67,13855166
906,1768.59,15004171
907,1652.31,14223888
908,1655.03,14640898
909,1595.48,13965289
910,1548.39,13537267
911,1665.22,14286388
912,1497.3,13322337
913,1809.93,15044886
914,1543.41,13398761
915,1616.38,13806972
916,1529.56,13408057
917,1794.23,14992638
918,1602.55,13511036
919,1646.71,14335998
920,1682.68,14216205
921,1639.95,13859545
922,1565.56,13718844
923,1627.16,14161847
924,1626.19,14519741
925,1945.76,15859192
926,1474.98,12960007
927,1776.61,14929249
928,1585.69,13605703
929,1733.59,14752244
930,1633.23,14277969
931,1527.66,13148624
932,1636.97,14150843
933,1480.48,12991075
934,1659.47,14002467
935,1470.07,12724319
936,1762.76,15306375
937,1742.21,14995513
938,1664.36,14647082
939,1638.78,13927797
940,1647.79,14018285
941,1642.11,14637411
942,1551.99,13558185
943,1620.16,13821151
944,1608.89,14164760
945,1756.39,15421003
946,1587.11,13756972
947,1767.06,14820735
948,1404.19,12209170
949,1790.72,15268018
950,1589.77,13549911
951,1628.87,14311639
952,1493.52,13032524
953,1807.72,14961663
954,1709.51,14676290
955,1642.23,14262929
956,1655.68,14345851
957,1628.11,13792623
958,1592.4,13593485
959,1602.74,13841815
960,1390.33,12477028
961,1785.31,15030775
962,1630.35,13838477
963,1557.97,13299510
964,1518.31,12648772
965,1666.24,14157188
966,1474.54,12609030
967,1599.85,14465671
968,1554.33,13575356
969,1570.85,13302637
970,1586.78,13886336
971,1555.1,13396202
972,1643.44,14275297
973,1570.92,14261453
974,1632.16,13793554
975,1697.27,14815658
976,1489.6,13311842
977,1581.56,13484694
978,1693.36,14493382
979,1625.31,14240897
980,1643.69,14669416
981,1692.19,14783934
982,1545.53,13663870
983,1725.89,14361138
984,1478.37,13043081
985,1797.41,15558954
986,1765.76,14967627
987,1730.59,14658942
988,1847.87,15794067
989,1585.1,13319040
990,1565.32,13998448
991,1554.78,13327994
992,1505.57,12663837
993,1610.91,13669514
994,1462.89,12915175
995,1573.13,13291775
996,1631.98,13830785
997,1787.58,15200939
998,1498.17,12875587
999,1549.26,12787814
1000,1609.54,13940579
1001,1781.68,15190999
1002,1828.43,15458646
1003,1815.62,15049630
1004,1618.21,14244384
1005,1617.96,13833966
1006,1732.32,14814798
1007,1650.45,13929358
1008,1427.48,12591764
1009,1696.41,14185676
1010,1558.74,13426056
1011,1531.79,12954854
1012,1318.1,11458758
1013,1603.87,13787735
1014,1556.13,13270200
1015,1864.42,15720225
1016,1690.11,14748400
1017,1810.6,15593656
1018,1484.88,12659245
1019,1771.33,14979960
1020,1557.89,13704895
1021,1679.62,14539013
1022,1711.31,14755846
1023,1751.3,14856580
1024,1793.83,14728140
1025,1602.2,13784343
1026,1469.98,12987114
1027,1444.4,12760111
1028,1590.1,13799571
1029,1742.77,14873164
1030,1624.49,13800059
1031,1635.38,13982604
1032,1704.44,14665490
1033,1600.47,13626058
1034,1686.79,14351083
1035,1520.74,13341906
1036,1642.77,14605192
1037,1914.94,15979287
1038,1723.4,14517214
1039,1725.47,14954337
1040,1507.01,13250233
1041,1624.57,13615508
1042,1584.12,13577275
1043,1683.09,14479634
1044,1558.92,13405199
1045,1746.47,15043348
1046,1922.3,16253822
1047,1730.74,15111256
1048,1815.64,15499773
1049,1677.16,14362858
1050,1645.02,14129876
1051,1627.51,13913011
1052,1509.47,13050266
1053,1839.77,16219977
1054,1566.49,13080304
1055,1643.01,14470565
1056,1656.57,14499040
1057,1678.62,14588231
1058,1482.62,13083832
1059,1739.43,14762173
1060,1557.71,13192344
1061,1550.81,13551770
1062,1558.53,13415411
1063,1828.67,15738348
1064,1734.47,14517293
1065,1796.79,14910021
1066,1555.3,13481766
1067,1739.94,14514887
1068,1713.99,15026088
1069,1817.42,15061249
1070,1623.73,14075429
1071,1852.04,15840186
1072,1553.32,13677240
1073,1652.53,14022630
1074,1396.93,12727451
1075,1669.23,14270983
1076,1534.64,13559599
1077,1810.01,15205750
1078,1545.98,13988128
1079,1606.21,13901233
1080,1641.68,14105605
1081,1816.47,15372231
1082,1436.65,12901960
1083,1586.73,13804484
1084,1472.9,13062640
1085,1461.17,13196384
1086,1379.98,12121628
1087,1870.72,16093234
1088,1689.7,14239288
1089,1558.36,13677483
1090,1564.69,13900491
1091,1598.62,13975485
1092,1448.89,12640715
1093,1772.53,15430672
1094,1668.76,14733292
1095,1447.74,12637216
1096,1715.0,14513605
1097,1726.7,14976720
1098,1621.95,13706034
1099,1555.37,13223467
1100,1573.8,13399139
1101,1675.57,14352769
1102,1684.97,14771835
1103,1486.52,13524136
1104,1475.12,13147805
1105,1685.37,14224282
1106,1543.11,12970457
1107,1603.48,13937325
1108,1727.04,14896771
1109,1563.71,13415572
1110,1627.06,14220479
1111,1615.24,14067827
1112,1516.8,12940267
1113,1922.69,15966455
1114,1692.3,14309059
1115,1668.02,14184422
1116,1421.41,12260493
1117,1831.21,15259386
1118,1683.22,14482041
1119,1701.68,14657612
1120,1451.42,12517466
1121,1601.62,13174031
1122,1581.25,13937208
1123,1606.65,13735521
1124,1864.9,15757814
1125,1712.78,14878904
1126,1665.19,14051670
1127,1715.9,14618755
1128,1733.56,14685616
1129,1715.92,14491042
1130,1482.16,13187319
1131,1741.57,14745624
1132,1688.06,15003277
1133,1950.73,16134963
1134,1780.97,15423598
1135,1655.95,14568850
1136,1524.46,13611791
1137,1718.84,14405697
1138,1628.73,13734820
1139,1750.36,14826019
1140,1708.19,14461726
1141,1758.21,15190164
1142,1549.08,13672253
1143,1693.09,14136852
1144,1497.46,13067136
1145,1727.92,14843061
1146,1602.23,13855031
1147,1437.45,12544982
1148,1462.99,12833382
1149,1904.76,15973342
1150,1650.15,14338467
1151,1439.49,12706176
1152,1563.55,13616922
1153,1711.3,14491860
1154,1775.23,14752474
1155,1640.53,14049989
1156,1712.98,14502024
1157,1783.34,15234852
1158,1741.24,14649299
1159,1734.64,14661906
1160,1556.24,13470529
1161,1768.42,14968453
1162,1789.34,14907879
1163,1663.26,14678823
1164,1768.78,15374282
1165,1755.56,14705320
1166,1869.84,15691329
1167,1613.38,14219441
1168,1766.19,15517353
1169,1851.77,15351796
1170,1577.82,13717378
1171,1757.55,14866324
1172,1729.3,14914851
1173,1740.86,14532212
1174,1726.29,15152772
1175,1594.84,13871503
1176,1711.86,14664524
1177,1791.79,14951763
1178,1692.65,14168575
1179,1748.19,14895430
1180,1663.95,13873354
1181,1791.59,15346405
1182,1875.17,16045602
1183,1586.63,13383022
1184,1541.64,13289646
1185,1790.03,15075150
1186,1604.57,13649196
1187,1777.93,15100884
1188,1882.9,15485445
1189,1634.2,13335489
1190,1904.49,15731080
1191,1753.0,15366512
1192,1915.84,16821589
1193,1694.73,14057534
1194,1837.79,15261278
1195,1590.07,13955257
1196,1732.8,14827743
1197,1783.14,14979433
1198,1829.45,15305074
1199,1792.85,14802569
1200,1659.71,14090708
1201,1580.59,13498596
1202,1660.68,14196325
1203,1749.65,14907055
1204,1505.33,13326202
1205,1488.7,13060253
1206,1574.78,13403177
1207,1518.76,13357054
1208,1573.57,13295533
1209,1908.01,16153641
1210,1563.84,13865323
1211,1658.39,13909683
1212,1696.12,14109322
1213,1687.27,15149830
1214,1568.5,13675369
1215,1706.37,14356265
1216,1687.6,14513907
1217,1780.65,14996688
1218,1632.54,13880365
1219,1773.1,15041147
1220,1678.66,14366328
1221,1827.58,15723763
1222,1659.83,13652673
1223,1769.25,15021634
1224,1680.63,14197774
1225,1720.49,14886586
1226,1733.48,14420779
1227,1527.35,13480238
1228,1636.81,14624204
1229,1742.91,15078661
1230,1676.93,14315377
1231,1770.84,15496962
1232,1455.29,12919772
1233,1743.74,14605968
1234,1514.98,13267560
1235,1543.62,13549934
1236,1693.88,14632699
1237,1718.21,14694105
1238,1787.37,14667402
1239,1713.92,14518510
1240,1654.24,14304920
1241,1741.45,14641340
1242,1782.0,15074830
1243,1728.76,14660091
1244,1810.37,15479018
1245,1787.19,14868668
1246,1837.76,15518377
1247,1883.48,15815365
1248,1876.51,15645328
1249,1671.93,14549435
1250,1654.87,14222213
1251,1683.6,14525000
1252,1691.57,14525738
1253,1897.64,15384113
1254,1810.54,15543939
1255,1674.77,14346796
1256,1934.52,15784231
1257,1624.32,14446802
1258,1657.67,14316390
1259,1878.55,15848456
1260,1742.9,14759731
1261,1717.93,14679769
1262,1663.88,14258357
1263,1504.65,12613047
1264,1602.33,14005422
1265,1630.0,14527142
1266,1533.66,13312576
1267,1644.81,14160747
1268,1607.89,14472978
1269,1614.12,14053288
1270,1528.17,13649463
1271,1816.38,15649331
1272,1620.2,13989815
1273,1747.39,14874861
1274,1724.16,14827149
1275,1823.78,15467492
1276,1722.73,14634904
1277,1692.13,14631933
1278,1667.15,14541498
1279,1590.15,13599688
1280,1389.87,12012835
1281,1569.71,13831780
1282,1230.89,11019603
1283,1520.89,13065463
1284,1427.0,12473102
1285,1571.15,13476532
1286,1422.9,12921274
1287,1448.29,12791169
1288,1438.23,12558812
1289,1427.75,12182466
1290,1588.7,13872540
1291,1565.52,13569439
1292,1751.8,14743979
1293,1458.19,12331459
1294,1580.86,13470106
1295,1566.01,13459689
1296,1483.24,12880064
1297,1553.86,13359278
1298,1392.91,12265397
1299,1528.61,13226088
1300,1539.25,13567677
1301,1551.51,13310072
1302,1363.96,11983173
1303,1787.73,15280616
1304,1519.42,13084635
1305,1808.18,15334883
1306,1474.96,12951713
1307,1590.72,14252281
1308,1334.59,11360718
1309,1700.21,14455452
1310,1455.88,12291046
1311,1725.63,14358579
1312,1440.75,12508080
1313,1610.11,13685527
1314,1312.69,11777521
1315,1492.65,13039479
1316,1428.56,12085214
1317,1557.96,13485660
1318,1534.7,13248679
1319,1474.26,12698839
1320,1787.47,15287090
1321,1575.73,13567503
1322,1480.14,12785245
1323,1552.35,13213862
1324,1586.05,13685114
1325,1487.66,13134321
1326,1540.45,13180792
1327,1552.38,13597522
1328,1476.11,12772327
1329,1513.27,12943030
1330,1336.98,11844969
1331,1650.09,13901194
1332,1333.18,11863160
1333,1507.01,12831248
1334,1292.24,11552123
1335,1545.72,13375934
1336,1599.89,14081344
1337,1673.66,14396193
1338,1319.52,11363709
1339,1654.46,14103890
1340,1502.23,13114240
1341,1940.59,16253168
1342,1502.8,12998542
1343,1564.67,13368328
1344,1338.8,11771350
1345,1475.68,12859032
1346,1452.3,12621548
1347,1414.22,12174095
1348,1517.56,13408501
1349,1447.73,12746753
1350,1488.95,12964038
1351,1541.62,13580684
1352,1465.19,12784075
1353,1561.5,13273338
1354,1488.67,12947159
1355,1475.71,12756686
1356,1542.6,12825141
1357,1596.32,13686595
1358,1659.8,14196938
1359,1521.53,13135181
1360,1435.62,12634692
1361,1573.43,13547983
1362,1387.19,11879856
1363,1538.39,12891903
1364,1552.28,13538736
1365,1719.9,14413130
1366,1500.67,12896442
1367,1636.29,13796345
1368,1544.09,13293338
1369,1920.77,15596266
1370,1635.98,13757285
1371,1609.39,13283475
1372,1466.64,12968689
1373,1740.23,14715114
1374,1446.84,12557132
1375,1709.55,14473849
1376,1258.24,11238150
1377,1389.49,12054324
1378,1399.93,12274001
1379,1498.41,12994555
1380,1539.67,13150011
1381,1569.88,13326451
1382,1332.45,11954663
1383,1520.04,13344137
1384,1668.48,14099782
1385,1524.8,12679157
1386,1430.8,12352440
1387,1581.18,13337143
1388,1563.62,13315717
1389,1683.63,14437309
1390,1504.06,12882323
1391,1372.32,12098482
1392,1380.54,12035217
1393,1548.06,13182023
1394,1395.51,12116883
1395,1374.06,12120959
1396,1380.76,12132046
1397,1573.36,13671855
1398,1419.06,12572523
1399,1821.39,15100832
1400,1522.57,13517810
1401,1492.21,12961314
1402,1509.12,12982061
1403,1789.83,14631962
1404,1628.69,13669350
1405,1688.0,14338442
1406,1588.47,13318730
1407,1595.02,13919455
1408,1485.24,12787739
1409,1614.27,13810468
1410,1487.54,12790884
1411,1555.39,13402638
1412,1715.63,14457940
1413,1685.79,14233610
1414,1605.97,13215305
1415,1530.15,13060288
1416,1618.61,14000256
1417,1879.76,15717100
1418,1440.35,12609784
1419,1752.49,14901460
1420,1619.19,13596666
1421,1713.76,14386547
1422,1662.9,14037632
1423,1700.87,14648605
1424,1436.07,12367324
1425,1632.23,13776200
1426,1724.93,14357438
1427,1859.72,15565571
1428,1638.62,14342834
1429,1787.64,14801223
1430,1562.7,13024216
1431,1667.82,13589005
1432,1663.45,14090933
1433,1729.34,14796844
1434,1670.52,14124337
1435,1840.8,15259337
1436,1569.61,14088411
1437,1846.2,15197042
1438,1724.04,14280416
1439,1599.65,13722866
1440,1635.94,14497709
1441,1769.29,15035648
1442,1625.25,13775663
1443,1383.04,12377045
1444,1661.04,13830851
1445,1616.44,13478715
1446,1539.07,13353777
1447,1431.54,12400134
1448,1621.57,13869629
1449,1725.08,14633329
1450,1613.66,13794118
1451,1586.52,13548843
1452,1724.62,14803842
1453,1524.38,13089281
1454,1533.7,13311996
1455,1567.77,13786826
1456,1524.54,13359161
1457,1466.72,13052361
1458,1374.88,12261075
1459,1602.66,13886701
1460,1374.54,12198074
1461,1852.46,15253345
1462,1452.33,12894809
1463,1506.22,13214609
1464,1455.6,12521041
1465,1618.39,13760285
1466,1496.85,12924482
1467,1622.5,13634170
1468,1487.57,13165332
1469,1861.68,15481583
1470,1543.52,13485333
1471,1672.75,14195680
1472,1625.94,13847205
1473,1603.27,13669695
1474,1719.14,14740099
1475,1564.57,13371438
1476,1511.61,13205672
1477,1461.6,12831192
1478,1678.24,14385993
1479,1567.76,13905868
1480,1630.32,14045879
1481,1722.74,14856094
1482,1766.45,14930258
1483,1549.11,13583457
1484,1552.59,13128793
1485,1526.19,13014522
1486,1517.59,13467871
1487,1589.12,13912984
1488,1460.09,12705370
1489,1579.11,13641393
1490,1516.39,12719696
1491,1625.91,13889844
1492,1547.15,12812071
1493,1697.71,14463694
1494,1532.57,12786290
1495,1572.35,13270444
1496,1703.91,14410158
1497,1619.9,14360030
1498,1674.57,14353516
1499,1917.98,15883061
1500,1626.44,13887854
1501,1876.19,15860670
1502,1653.05,14327017
1503,1625.98,14189689
1504,1569.38,13503893
1505,1573.02,13555744
1506,1487.02,12943271
1507,1628.07,14137982
1508,1565.38,13416396
1509,1716.67,14470866
1510,1586.67,13403824
1511,1579.73,13725542
1512,1484.79,12782982
1513,1590.17,13277981
1514,1600.33,13743191
1515,1671.43,14484344
1516,1712.17,14940972
1517,1733.31,14456103
1518,1583.06,13948010
1519,1639.52,14389286
1520,1528.41,13174299
1521,1530.54,13081023
1522,1543.59,13245698
1523,1639.07,14148303
1524,1448.92,12684386
1525,1562.97,13518803
1526,1353.28,12467221
1527,1653.64,14397276
1528,1563.34,13795232
1529,1679.88,14560044
1530,1654.31,14369920
1531,1547.48,13220878
1532,1386.04,12594017
1533,1706.63,14614830
1534,1649.26,14360151
1535,1696.57,14202704
1536,1639.13,14074021
1537,1580.75,13895406
1538,1610.9,14024774
1539,1768.48,14828966
1540,1647.27,13862640
1541,1659.76,14064603
1542,1728.96,14459762
1543,1862.35,15377932
1544,1685.73,14517013
1545,1649.22,14079276
1546,1718.82,14314524
1547,1858.12,16071252
1548,1672.52,14687447
1549,1810.59,14982405
1550,1820.89,15066707
1551,1736.73,14950677
1552,1756.12,14918858
1553,1835.17,15323057
1554,1616.84,14052339
1555,1715.28,14823756
1556,1600.79,13785291
1557,1732.56,14501810
1558,1864.01,15276882
1559,1653.7,14647680
1560,1587.76,14019727
1561,2039.33,16233211
1562,1709.76,14652463
1563,1919.86,16072892
1564,1578.55,13533824
1565,2074.23,17017259
1566,1782.17,14902171
1567,1834.43,15477993
1568,1686.25,14597497
1569,1668.61,14319200
1570,1546.22,13572698
1571,1669.13,13879319
1572,1798.9,14931895
1573,1820.58,14988070
1574,1618.55,14150277
1575,1729.83,14076443
1576,1604.61,14004427
1577,1786.14,15541002
1578,1732.76,14472151
1579,1819.27,15272008
1580,1731.81,14712162
1581,1589.52,14099428
1582,1780.96,15157064
1583,1764.39,14885384
1584,1425.22,12621816
1585,1832.35,15608758
1586,1510.76,13226406
1587,1766.89,14793653
1588,1509.33,13460949
1589,1846.78,15739106
1590,1612.23,14020008
1591,1593.22,13905304
1592,1685.59,14214799
1593,1774.2,15074613
1594,1669.07,14663394
1595,1448.84,12698144
1596,1573.75,13763855
1597,1646.56,14168476
1598,1606.54,13461398
1599,1668.7,13695759
1600,1708.47,14201713
1601,1676.3,14234528
1602,1496.71,13471124
1603,1701.62,14422626
1604,1656.27,14165555
1605,1694.01,13714986
1606,1601.02,13658116
1607,1668.89,14230123
1608,1699.09,14531065
1609,1755.99,14634273
1610,1624.18,13926582
1611,1710.76,14026985
1612,1732.4,14620226
1613,1778.34,15110149
1614,1694.34,14405775
1615,1737.49,14918680
1616,1418.65,12721456
1617,1583.13,13695506
1618,1659.62,14257699
1619,1572.93,13345984
1620,1396.49,12480984
1621,1541.97,13163861
1622,1583.22,14222772
1623,1631.06,13789571
1624,1726.21,14782189
1625,1897.26,15895390
1626,1643.22,14176996
1627,1837.18,15442226
1628,1651.03,13875241
1629,1707.31,14743069
1630,1606.72,13860136
1631,1724.02,14656384
1632,1593.67,13647124
1633,1710.71,14441210
1634,1739.17,14671612
1635,1820.77,15608142
1636,1686.11,14412346
1637,1662.76,14307509
1638,1630.22,13754341
1639,1635.96,13911742
1640,1534.13,13314436
1641,1749.53,14973656
1642,1732.31,14716438
1643,1732.41,14429997
1644,1731.04,14832194
1645,1721.25,14740080
1646,1719.85,14634510
1647,1617.98,13919494
1648,1451.67,12848386
1649,1866.86,16333138
1650,1641.18,13872423
1651,1764.39,14246151
1652,1658.71,14221812
1653,1628.96,14065901
1654,1491.05,13162467
1655,1525.86,13550184
1656,1741.59,14761680
1657,1783.06,14667877
1658,1661.44,14180998
1659,1535.93,13009144
1660,1689.71,14315778
1661,1612.43,13455648
1662,1630.37,13528862
1663,1536.57,13347810
1664,1688.72,14911414
1665,1829.1,15257350
1666,2132.82,17755923
1667,1843.03,15479261
1668,1695.37,14273150
1669,1827.08,15202398
1670,1732.09,14560416
1671,1753.15,14889029
1672,1818.51,15390536
1673,1567.42,13589782
1674,1587.32,13759553
1675,1817.35,15448779
1676,1929.86,16439046
1677,1750.97,14933567
1678,1875.19,15633683
1679,1721.24,14977839
1680,1654.07,14072686
1681,1624.14,13816854
1682,1660.21,13889018
1683,1850.97,15855595
1684,1707.41,14389683
1685,1748.23,15036359
1686,1681.27,14277292
1687,1783.51,14948521
1688,1812.19,14907847
1689,1671.45,14214616
1690,1593.35,13540507
1691,1911.49,15590915
1692,1792.79,14835756
1693,1825.52,15468742
1694,1786.93,14860836
1695,1645.76,14172352
1696,1793.78,15476014
1697,1696.71,14235887
1698,1687.94,14373573
1699,1610.57,13870929
1700,1801.2,15474416
1701,1851.24,15433761
1702,1701.97,14523386
1703,1744.4,14746113
1704,1895.3,15623575
1705,1560.61,13958080
1706,1846.72,15580573
1707,1653.95,14004875
1708,1759.55,14867910
1709,1783.86,14769244
1710,1688.36,14707306
1711,1865.25,15668786
1712,1705.89,14694185
1713,1661.43,14268958
1714,1779.95,15025233
1715,1680.36,14647327
1716,1703.15,14827224
1717,1857.44,15784896
1718,1655.01,13590963
1719,1726.37,14943108
1720,1664.69,13906369
1721,1789.56,15029210
1722,1609.62,13868185
1723,1772.31,14852399
1724,1759.4,14746483
1725,1825.69,15501341
1726,1662.82,14145686
1727,1980.08,16117504
1728,1679.03,13862808
1729,1750.75,15037645
1730,1694.13,14754195
1731,1734.99,14829583
1732,1729.17,14503762
1733,1974.65,16549630
1734,1663.94,13915351
1735,1978.49,15866648
1736,1755.18,14802732
1737,1658.59,13966456
1738,1689.01,14498201
1739,1836.43,15642470
1740,1686.14,14169795
1741,1886.85,15793204
1742,1784.36,15425801
1743,1759.58,15468329
1744,1561.21,13381946
1745,1790.24,15341583
1746,1701.13,14493015
1747,1813.06,15396425
1748,1604.52,13518072
1749,1940.73,16091894
1750,1690.52,14606606
1751,1839.46,15450239
1752,2063.89,16540470
1753,1716.06,14707363
1754,1631.23,14145430
1755,1869.33,15868306
1756,1771.39,14836978
1757,1937.99,16039069
1758,1675.13,13702986
1759,1902.15,16287996
1760,1935.87,16188472
1761,1708.07,14385919
1762,1582.11,13574134
1763,1729.63,14296303
1764,1905.74,16157704
1765,1922.97,16360975
1766,1971.32,16269732
1767,1549.02,13279945
1768,1695.83,14606625
1769,1783.86,14891713
1770,1800.53,15578435
1771,1740.98,14949808
1772,1897.91,15927736
1773,1691.78,14634283
1774,1716.81,14673483
1775,1885.52,15546071
1776,1572.19,14095925
1777,1718.56,14775865
1778,1645.82,13837063
1779,1501.0,12968271
1780,1625.85,14112084
1781,1502.44,12950779
1782,1649.7,13883729
1783,1541.66,13627895
1784,1689.7,14625742
1785,1899.38,16242209
1786,1680.87,14419737
1787,1654.47,14462197
1788,1769.5,14640670
1789,1963.68,16225297
1790,1685.26,14629865
1791,1535.53,13685579
1792,1341.77,12051406
1793,1524.89,13355452
1794,1471.09,12361825
1795,1271.63,11140554
1796,1434.35,12778013
1797,1564.94,13375142
1798,1444.82,12863779
1799,1586.07,13600831
1800,1502.57,12849628
1801,1429.66,12506211
1802,1510.52,13175428
1803,1534.21,13650114
1804,1476.31,12692191
1805,1523.55,13236247
1806,1566.9,13713843
1807,1598.94,13704978
1808,1310.54,11834985
1809,1575.1,13466057
1810,1433.27,12493062
1811,1568.1,13237011
1812,1403.16,12236956
1813,1773.71,15574547
1814,1301.6,11799664
1815,1601.6,13775392
1816,1521.68,13117765
1817,1776.72,14341970
1818,1498.54,12783563
1819,1848.72,15687078
1820,1613.7,14004410
1821,1858.41,15774362
1822,1559.12,13293353
1823,1761.42,14865564
1824,1358.39,12119588
1825,1571.44,13384843
1826,1290.2,11230048
1827,1497.33,13176304
1828,1442.12,12965872
1829,1431.45,12598982
1830,1344.58,11908578
1831,1603.84,14127396
1832,1457.31,12553331
1833,1612.59,14043093
1834,1531.9,13083297
1835,1341.38,11607378
1836,1648.13,14389265
1837,1438.63,12650438
1838,1633.17,13853509
1839,1496.03,12906651
1840,1454.48,12344785
1841,1572.0,13345255
1842,1521.98,13495840
1843,1504.15,13110850
1844,1545.19,13590734
1845,1607.9,13581121
1846,1482.73,13218677
1847,1414.95,12433869
1848,1378.53,12211794
1849,1658.63,14014349
1850,1689.95,14191230
1851,1648.96,14328885
1852,1453.86,12582552
1853,1805.19,15372791
1854,1388.35,12472860
1855,1620.1,14022307
1856,1494.98,12899391
1857,1461.67,12441332
1858,1450.47,12607911
1859,1528.8,13364759
1860,1404.84,12290865
1861,1471.38,13096518
1862,1306.47,11769281
1863,1641.29,14328511
1864,1583.43,13734285
1865,1650.44,14418087
1866,1422.91,12507131
1867,1716.87,14697862
1868,1711.46,14421525
1869,1654.49,14190006
1870,1497.53,13112675
1871,1592.41,13946455
1872,1433.19,12491372
1873,1653.25,14153858
1874,1413.01,12471388
1875,1566.74,14066581
1876,1296.13,11306356
1877,1558.58,13394864
1878,1493.05,12723312
1879,1664.08,13735500
1880,1608.25,13533912
1881,1768.83,15389329
1882,1537.47,13125354
1883,1523.34,13475043
1884,1405.78,12446502
1885,1650.92,13980136
1886,1661.85,14108755
1887,1758.13,15092196
1888,1460.65,12693521
1889,1411.6,12188809
1890,1476.92,13063896
1891,1519.33,13229166
1892,1534.51,13275154
1893,1582.45,13694720
1894,1547.15,13520680
1895,1521.24,13369375
1896,1577.36,13669726
1897,1501.85,12678972
1898,1488.26,13077072
1899,1489.31,12842726
1900,1588.13,13951500
1901,1605.17,13903265
1902,1491.39,13227779
1903,1529.34,13713950
1904,1464.43,12826402
1905,1668.06,14276700
1906,1504.4,12916776
1907,1417.83,12128223
1908,1288.85,11777286
1909,1606.6,13758208
1910,1338.59,11676961
1911,1693.65,14679521
1912,1593.66,13745171
1913,1543.05,13244920
1914,1594.76,13826106
1915,1612.1,13962657
1916,1603.68,13554493
1917,1514.47,13011841
1918,1476.15,13270324
1919,1752.69,15174099
1920,1654.54,14302630
1921,1610.6,14234745
1922,1607.63,13675452
1923,1579.66,13454665
1924,1372.83,12591029
1925,1652.8,13794681
1926,1477.33,13071701
1927,1432.14,12203467
1928,1601.25,13728921
1929,1634.09,13805634
1930,1588.16,13441550
1931,1568.17,14015838
1932,1606.02,13581264
1933,1611.58,13706115
1934,1765.13,14974102
1935,1483.41,12897628
1936,1354.46,12010346
1937,1809.58,15246457
1938,1540.81,13335003
1939,1415.66,12178966
1940,1479.32,12883541
1941,1854.7,15686321
1942,1420.56,12701117
1943,1643.21,13822131
1944,1486.22,13039043
1945,1776.4,15285958
1946,1332.82,11677544
1947,1853.24,15110169
1948,1665.78,14366178
1949,1614.72,13773026
1950,1549.45,13999177
1951,1613.74,13651946
1952,1567.4,13597816
1953,1685.9,14159662
1954,1317.49,11510622
1955,1526.03,13057929
1956,1628.19,14338742
1957,1650.36,14210796
1958,1524.18,13181746
1959,1683.58,14549167
1960,1598.96,13832678
1961,1571.57,13755308
1962,1618.57,14513849
1963,1400.12,12207422
1964,1535.47,13330147
1965,1585.61,13851439
1966,1582.0,13615556
1967,1598.45,13702564
1968,1545.18,13122029
1969,1603.7,14348406
1970,1606.17,13760860
1971,1626.08,13958489
1972,1478.06,12672160
1973,1539.25,13378311
1974,1479.71,12614674
1975,1663.42,14393503
1976,1584.25,13852714
1977,1660.94,14365054
1978,1543.01,13314353
1979,1926.98,16373446
1980,1535.19,13231257
1981,1648.58,13926169
1982,1674.75,14393998
1983,1500.79,13125699
1984,1496.46,12599246
1985,1665.64,14292164
1986,1504.5,13130787
1987,1502.75,13241400
1988,1675.22,14877722
1989,1622.57,14008133
1990,1493.95,13173675
1991,1379.31,12072876
1992,1603.57,13696611
1993,1679.17,14232785
1994,1669.14,14629295
1995,1592.56,13756806
1996,1488.08,12791090
1997,1572.52,13527111
1998,1733.85,14495553
1999,1668.77,14159096
2000,1490.31,12798568
2001,1599.53,13989097
2002,1616.8,14207513
2003,1526.62,13402942
2004,1510.01,12887306
2005,1776.85,14863754
2006,1418.51,12736239
2007,1840.0,15151275
2008,1432.78,12833634
2009,1591.76,13658503
2010,1715.47,14784239
2011,1781.76,15046562
2012,1412.44,12562518
2013,1643.93,14173083
2014,1699.52,14218082
2015,1667.52,14348871
2016,1600.38,13483107
2017,1608.01,14216103
2018,1470.39,13096719
2019,1582.3,14025453
2020,1628.92,14137865
2021,1629.54,13762693
2022,1486.77,12834353
2023,1587.28,13824400
2024,1621.69,13942370
2025,1683.02,14475239
2026,1523.52,13489466
2027,1635.52,13856916
2028,1460.82,12936840
2029,1877.56,15454538
2030,1772.15,14933595
2031,1681.06,14560457
2032,1461.24,13425716
2033,1511.45,13345965
2034,1540.57,13536266
2035,1510.65,13214927
2036,1440.4,12678109
2037,1675.91,14246437
2038,1559.58,13672253
2039,1548.3,13758542
2040,1383.82,12548987
2041,1634.84,13730525
2042,1549.84,13866675
2043,1976.97,16606962
2044,1596.53,13866861
2045,1778.26,14785707
2046,1643.54,14058208
2047,1636.16,14072768
2048,1532.18,13338546
2049,1764.36,14888839
2050,1541.11,13378505
2051,1617.93,13746834
2052,1571.75,13918160
2053,1936.78,15978933
2054,1680.24,14263518
2055,1760.68,15098542
2056,1649.2,14341165
2057,1815.92,15366699
2058,1767.91,15332844
2059,1732.88,14869323
2060,1805.69,14988658
2061,1897.83,15330921
2062,1717.95,14325261
2063,1830.2,15580473
2064,1419.55,12329747
2065,1895.53,15297135
2066,1562.15,13321189
2067,1674.57,14326495
2068,1621.25,13747567
2069,1950.3,16108312
2070,1779.46,14668679
2071,1612.35,13737903
2072,1611.9,14184681
2073,1769.09,15251274
2074,1730.65,15099497
2075,1759.24,15227857
2076,1931.63,16226282
2077,1987.12,16555489
2078,1602.64,13759509
2079,1789.99,15405408
2080,1596.84,13702888
2081,1709.29,14721210
2082,1830.69,15334705
2083,1646.76,13791769
2084,1895.84,15926577
2085,1837.13,15371420
2086,1917.59,16153067
2087,1689.95,14417950
2088,1937.04,16389633
2089,1845.5,15687793
2090,1869.36,15779457
2091,1817.04,14756122
2092,1765.51,15147189
2093,1862.83,16022086
2094,1593.04,13418843
2095,1902.33,15736687
2096,1672.67,14227281
2097,1874.18,15729904
2098,1611.85,13826388
2099,1470.15,13139351
2100,1550.98,13387747
2101,1697.66,14365131
2102,1753.68,15260808
2103,1706.9,14516781
2104,1585.14,13859923
2105,1719.26,14313372
2106,1500.23,12585037
2107,1597.1,14035811
2108,1566.83,13709886
2109,1965.83,16032687
2110,1695.62,14427599
2111,1683.13,14392894
2112,1618.82,13809144
2113,1835.41,15988818
2114,1842.52,15623503
2115,1493.71,12896886
2116,1793.57,15062921
2117,1714.7,14637412
2118,1799.56,14991443
2119,1900.78,15797364
2120,1757.58,14738165
2121,1843.6,15883885
2122,1727.62,14797161
2123,1755.82,14899168
2124,1685.79,14495778
2125,1757.76,15086899
2126,1739.91,14685359
2127,1803.5,15463585
2128,1493.44,12665504
2129,1797.85,15590747
2130,1638.78,14038904
2131,1839.45,15402620
2132,1602.74,13707586
2133,1908.75,16424230
2134,1694.86,14395004
2135,1669.35,13981738
2136,1613.22,14087607
2137,1848.11,15139396
2138,1598.34,14034815
2139,1649.17,14350204
2140,1664.05,14117117
2141,1854.31,15375444
2142,1652.05,14172412
2143,1649.91,13980787
2144,1902.49,15824660
2145,1907.22,16058987
2146,1497.47,13036631
2147,1765.32,15030551
2148,1738.19,14807525
2149,1863.05,15616135
2150,1813.17,15321929
2151,1709.55,14874280
2152,1733.71,14447768
2153,1649.09,14263195
2154,1828.06,15184821
2155,1688.1,14201438
2156,1724.76,14591773
2157,1818.39,15227302
2158,1781.87,15120609
2159,1747.64,14769233
2160,1475.92,12840744
2161,1633.9,14141173
2162,1566.31,13837204
2163,1606.8,13709024
2164,1677.23,14277987
2165,1645.32,14061094
2166,1609.1,13672034
2167,1504.21,13188498
2168,1679.6,14022678
2169,1655.0,14222409
2170,1655.96,13858885
2171,1897.51,16053829
2172,1715.34,14756270
2173,1607.07,13721532
2174,1767.55,15086922
2175,1817.94,15207563
2176,1610.76,13698281
2177,1674.2,14297803
2178,1726.02,14133023
2179,1517.35,13173166
2180,1545.51,13403367
2181,1801.26,15465743
2182,1775.46,14794283
2183,1534.58,13039155
2184,1554.17,13168883
2185,1798.15,15667967
2186,1707.48,14565438
2187,1602.71,13900969
2188,1676.3,14453895
2189,1992.13,16455676
2190,1729.15,14636545
2191,1895.1,15807131
2192,1523.19,13335952
2193,1616.48,13482004
2194,1857.77,15668571
2195,1683.54,14732583
2196,1560.97,14230514
2197,1532.52,13657928
2198,1539.07,13142765
2199,1559.62,13349688
2200,1634.54,14047402
2201,1622.08,13763764
2202,1470.16,13017273
2203,1837.08,15358045
2204,1549.52,13437127
2205,1655.24,14360727
2206,1783.3,15548056
2207,1639.59,14098992
2208,1672.52,13992948
2209,1688.33,14399457
2210,1691.02,14961434
2211,1582.38,14001223
2212,1692.85,14187464
2213,1761.27,14853940
2214,1754.32,15118675
2215,1607.22,14359318
2216,1843.68,15510317
2217,1684.67,14609040
2218,1709.18,14722469
2219,1742.38,14836377
2220,1640.38,14345158
2221,1843.87,15639559
2222,1768.88,14473267
2223,1586.96,13558981
2224,1633.32,14027782
2225,1545.25,13666067
2226,1631.09,13817307
2227,1557.18,13585134
2228,1547.03,13980179
2229,1593.11,13725138
2230,1555.07,13328968
2231,1561.45,13553290
2232,1433.55,12789546
2233,1640.42,14413679
2234,1673.3,14353128
2235,1802.03,15003057
2236,1458.98,12962149
2237,1689.29,14651285
2238,1865.37,15702717
2239,1636.65,13895301
2240,1843.14,15223194
2241,1817.02,15401008
2242,1703.84,14850690
2243,1523.56,12965293
2244,1709.62,14398991
2245,1888.47,15840833
2246,1767.18,14580308
2247,1952.04,15883931
2248,1671.7,14300487
2249,1782.42,15117829
2250,1712.09,14463192
2251,1579.46,13937621
2252,1661.63,14056961
2253,1846.79,15660054
2254,1520.7,13117323
2255,1849.94,16005435
2256,1659.25,14290304
2257,1843.76,15388607
2258,1639.27,14053291
2259,1632.4,14184067
2260,1856.68,15347298
2261,1507.53,13474620
2262,1744.7,14655921
2263,1475.15,12542390
2264,1663.72,14393705
2265,1880.12,15155362
2266,1830.25,15309094
2267,1673.85,14473826
2268,1708.39,14508317
2269,1673.55,14315564
2270,1862.09,15600362
2271,1531.7,13990896
2272,1699.03,14361613
2273,1769.18,14691511
2274,1661.77,14216398
2275,1659.65,13869121
2276,1609.45,14101482
2277,1625.79,14172272
2278,1651.5,14259667
2279,1772.72,15001250
2280,1718.4,14604803
2281,1854.52,15477300
2282,1551.8,13381898
2283,1744.95,14829308
2284,1860.18,16011937
2285,1787.13,15399460
2286,1594.7,13640682
2287,1723.99,14469070
2288,1563.78,13186694
2289,1731.9,14611220
2290,1616.51,13894965
2291,1490.96,12785474
2292,1612.23,14026858
2293,1804.3,15270275
2294,1534.58,13055836
2295,1621.45,13524244
2296,1749.19,14609193
2297,1606.75,13951844
2298,1500.88,13229312
2299,1455.92,13096271
2300,1826.22,15423712
2301,1491.12,13286070
2302,1694.04,15252283
2303,1526.59,13631391
2304,1522.59,13328570
2305,1523.85,12791769
2306,1570.59,13583888
2307,1603.9,13797749
2308,1528.6,13351245
2309,1711.15,14108959
2310,1601.49,13556869
2311,1511.93,13029714
2312,1579.92,13415330
2313,1692.03,14482076
2314,1471.15,12783313
2315,1588.64,13412193
2316,1639.46,14295306
2317,1573.62,13723392
2318,1759.11,15036612
2319,1768.13,15034911
2320,1514.95,13301607
2321,1748.73,15806216
2322,1340.14,11722831
2323,1621.02,13736663
2324,1682.64,14389904
2325,1589.71,13335296
2326,1357.51,12116280
2327,1654.33,13984104
2328,1803.52,15059863
2329,1723.31,15218105
2330,1703.54,14043263
2331,1655.57,13879369
2332,1502.24,12803078
2333,1550.34,13599437
2334,1593.37,13541421
2335,1885.41,16404122
2336,1493.5,13043859
2337,1616.57,13710214
2338,1560.76,13323839
2339,1610.66,13649887
2340,1588.62,13592764
2341,1620.65,13564511
2342,1381.38,12235440
2343,1525.65,13248968
2344,1629.59,13944192
2345,1567.43,13527031
2346,1603.21,13727915
2347,1598.89,13766234
2348,1634.55,13909271
2349,1551.33,13043620
2350,1565.5,12953581
2351,1655.62,13995723
2352,1300.91,11592342
2353,1535.92,13296177
2354,1619.74,13696181
2355,1540.5,13320369
2356,1369.02,12127197
2357,1546.87,13663720
2358,1525.87,13350876
2359,1633.47,13812768
2360,1703.56,14022621
2361,1920.88,16134970
2362,1654.16,13957064
2363,1609.71,13996414
2364,1697.78,14998036
2365,1606.66,14283976
2366,1658.5,13981698
2367,1864.97,15294378
2368,1536.72,13221697
2369,1543.26,13425743
2370,1570.52,13382831
2371,1522.0,12980422
2372,1458.74,12696073
2373,1659.02,14182577
2374,1474.12,12443046
2375,1448.12,12505989
2376,1635.31,14170306
2377,1755.35,14864512
2378,1605.96,13700032
2379,1485.57,13042120
2380,1730.16,14903444
2381,1641.57,13383415
2382,1523.47,13608008
2383,1698.76,14469721
2384,1548.08,13220404
2385,1533.49,12907761
2386,1504.54,13135098
2387,1569.66,14027503
2388,1415.12,12422300
2389,1740.93,14827403
2390,1484.6,12486208
2391,1714.01,14501285
2392,1587.34,13780814
2393,1887.23,15312169
2394,1569.45,13441689
2395,1890.85,15850446
2396,1558.68,13131505
2397,1620.67,14376377
2398,1592.43,13485921
2399,1747.42,14549724
2400,1479.85,12652246
2401,1690.17,14372518
2402,1624.7,14137491
2403,1608.62,13679451
2404,1572.61,13808107
2405,1729.09,14832911
2406,1588.97,13273308
2407,1697.35,14328941
2408,1662.36,14233431
2409,1647.62,13970501
2410,1508.6,12933614
2411,1562.64,13626785
2412,1569.49,13501188
2413,1673.28,14104470
2414,1787.3,15260157
2415,1609.35,13614383
2416,1318.11,11696568
2417,1899.47,16509173
2418,1454.79,12691482
2419,1628.09,13789866
2420,1561.73,13648029
2421,1547.18,13613213
2422,1529.15,13267042
2423,1524.34,13222759
2424,1553.3,13400929
2425,1843.25,15581516
2426,1448.86,12523898
2427,1671.19,14806292
2428,1422.32,12465899
2429,1703.01,14642889
2430,1426.14,12439169
2431,1551.63,13315907
2432,1393.7,12087920
2433,1541.1,13328859
2434,1473.87,13083405
2435,1485.32,12989387
2436,1497.45,13034794
2437,1643.24,13872561
2438,1584.78,13509633
2439,1654.45,13798680
2440,1514.95,13278695
2441,1485.62,13205463
2442,1506.16,12665662
2443,1521.35,12918918
2444,1413.6,12300876
2445,1713.35,14620973
2446,1583.92,14001908
2447,1720.95,14492992
2448,1308.33,11385627
2449,1780.35,14681753
2450,1458.04,13108526
2451,1550.88,13392566
2452,1434.43,12478225
2453,1568.53,13532486
2454,1529.43,13455719
2455,1566.44,13440996
2456,1544.41,13308269
2457,1551.79,13608303
2458,1526.84,13380248
2459,1659.78,13871261
2460,1544.51,13473928
2461,1594.93,13962579
2462,1516.86,13052221
2463,1518.86,13273219
2464,1458.46,12694921
2465,1474.72,12764149
2466,1417.12,12559224
2467,1644.65,14017978
2468,1620.39,13880341
2469,1620.88,13799612
2470,1560.39,13408162
2471,1609.64,13793130
2472,1624.11,13696088
2473,1595.9,13783762
2474,1309.74,11964548
2475,1504.13,13235544
2476,1471.43,12821609
2477,1653.59,14226782
2478,1560.93,13468374
2479,1533.05,13140226
2480,1617.37,13905636
2481,1606.31,13948690
2482,1365.82,12732566
2483,1488.3,13334022
2484,1412.94,12440203
2485,1497.12,12658627
2486,1366.27,11886456
2487,1646.65,14628169
2488,1583.02,13523409
2489,1653.77,13881161
2490,1558.36,13320009
2491,1504.54,13042208
2492,1524.0,13034091
2493,1727.31,14651295
2494,1420.24,12438106
2495,1789.19,15174592
2496,1672.73,13973444
2497,1609.03,13626786
2498,1307.82,11500075
2499,1503.48,12784965
2500,1579.18,13377276
2501,1688.36,14558900
2502,1789.21,15228564
2503,1621.4,14136215
2504,1525.49,13406592
2505,1503.81,13069747
2506,1547.65,13109062
2507,1535.81,13435999
2508,1416.33,12574779
2509,1623.41,14030708
2510,1535.59,12983364
2511,1483.08,13004169
2512,1587.51,13713502
2513,1594.81,13740780
2514,1449.75,13206485
2515,1600.74,14269291
2516,1476.87,13008556
2517,1748.96,15137825
2518,1455.15,12934937
2519,1524.03,13394791
2520,1530.52,13371385
2521,1811.46,15016423
2522,1697.06,13930233
2523,1485.23,13022231
2524,1693.45,14387412
2525,1512.14,13172852
2526,1548.14,13778074
2527,1427.11,12400193
2528,1665.02,14883514
2529,1523.22,13078563
2530,1548.15,13256430
2531,1580.65,13499957
2532,1462.21,12672558
2533,1583.33,13575635
2534,1629.59,13737599
2535,1629.35,13801065
2536,1495.89,13009785
2537,1721.85,14445366
2538,1641.56,14052732
2539,1562.11,13118665
2540,1663.27,14383033
2541,1659.81,14644061
2542,1630.57,13709704
2543,1653.51,14004665
2544,1390.7,12135064
2545,1465.61,12786012
2546,1391.72,12393975
2547,1410.99,12452688
2548,1479.74,13022341
2549,1649.87,14150664
2550,1629.17,14040117
2551,1607.37,13838399
2552,1275.27,11246305
2553,1947.09,16494213
2554,1678.77,14745972
2555,1672.81,14384024
2556,1601.75,13487740
2557,1647.14,14088078
2558,1535.77,12897077
2559,1765.54,15200167
2560,1682.47,14500964
2561,1742.03,14831229
2562,1734.76,14857672
2563,1776.18,14586848
2564,1633.83,14065937
2565,1881.58,15619865
2566,1743.72,14542648
2567,1858.0,15514903
2568,1687.41,14681272
2569,2037.13,17122509
2570,1721.01,14288525
2571,1653.81,14146445
2572,1714.53,14444792
2573,1741.9,14660312
2574,2017.37,16709617
2575,1903.29,15923198
2576,1806.04,15220772
2577,1784.04,14842322
2578,1589.36,13860553
2579,1778.61,15235525
2580,1571.14,13489585
2581,1814.26,15370359
2582,1841.38,15556221
2583,1871.14,15802148
2584,1718.88,14722800
2585,1865.62,15663502
2586,1785.44,15270003
2587,1829.12,15456015
2588,1808.41,15120362
2589,1868.12,15492627
2590,1748.17,14784550
2591,1679.13,13976470
2592,1749.5,14372801
2593,1783.68,15152896
2594,1846.35,15877101
2595,1606.09,13768048
2596,1873.99,15738934
2597,1863.79,15853417
2598,2063.63,17339516
2599,2075.09,16815717
2600,1809.67,14952905
2601,1742.31,14723511
2602,1904.46,15842655
2603,1615.36,14104713
2604,2118.49,17549186
2605,1832.6,15433712
2606,1922.79,16455881
2607,1801.98,15305573
2608,1582.53,13738774
2609,1702.19,14323255
2610,1461.49,12844779
2611,1578.86,13662466
2612,1566.84,13474059
2613,1843.71,15338060
2614,1541.57,13151197
2615,1746.99,14822544
2616,1809.13,15337918
2617,1502.62,13242576
2618,1704.4,13943932
2619,1531.69,13624940
2620,1649.8,14573770
2621,1831.24,15247136
2622,1604.34,13681034
2623,1738.74,14708257
2624,1731.52,14834671
2625,1552.17,13379326
2626,1682.48,14105864
2627,1951.99,16490253
2628,1765.33,14798332
2629,1619.07,14319312
2630,1732.17,14543808
2631,1736.7,14361970
2632,1545.58,13307010
2633,1550.51,13071774
2634,1956.71,16599513
2635,1714.89,14544172
2636,1701.42,14419370
2637,1782.31,14719305
2638,1774.4,14836292
2639,1826.37,15186116
2640,1679.99,14076597
2641,1851.99,15467553
2642,1601.16,13763993
2643,1722.61,14256539
2644,1586.3,13468434
2645,1893.16,15389391
2646,1741.78,15041859
2647,1721.62,14009414
2648,1675.49,14232544
2649,1837.93,15830761
2650,1591.03,13780805
2651,1878.18,15615692
2652,1811.29,15801390
2653,1657.79,14297366
2654,1967.07,16515798
2655,1816.03,15404231
2656,1581.83,13579284
2657,1948.47,16251827
2658,1623.44,13884979
2659,1764.49,15284843
2660,1864.92,15575602
2661,1996.41,16234759
2662,1726.11,14722870
2663,1776.79,14374783
2664,1950.26,16283746
2665,1849.84,15161638
2666,1793.78,15179958
2667,1651.36,14059481
2668,1867.53,15558116
2669,1752.95,15011806
2670,1668.5,13796287
2671,1641.26,14070191
2672,1495.86,12955844
2673,1738.01,14966167
2674,1560.56,13818366
2675,1712.02,14914161
2676,1754.89,14804729
2677,1778.65,15197078
2678,1688.09,14408305
2679,1735.44,14703205
2680,1669.45,14295537
2681,1785.97,14986775
2682,1716.44,14600875
2683,1833.93,15091695
2684,1663.56,14316304
2685,1797.0,14957172
2686,1780.23,15094361
2687,1544.72,13362163
2688,1878.85,15481849
2689,1731.62,14552406
2690,1646.64,13565703
2691,1629.55,14239686
2692,1716.79,14628347
2693,1707.81,14624340
2694,1584.38,13687367
2695,1746.51,14917848
2696,1768.71,15019575
2697,1864.04,15772494
2698,1716.17,14649467
2699,1502.58,13008695
2700,1650.13,14325480
2701,1706.13,14629366
2702,1592.13,13589240
2703,1665.42,14517423
2704,1727.17,14477055
2705,1661.01,14552949
2706,1719.83,14252045
2707,1634.37,14257978
2708,1460.21,13185577
2709,1733.46,14844955
2710,1649.66,13951245
2711,1562.55,13159241
2712,1608.13,14218613
2713,1548.91,13243224
2714,1492.22,12865256
2715,1579.57,13957070
2716,1667.23,14428340
2717,1610.83,14131551
2718,1813.44,14756831
2719,1776.19,15442954
2720,1881.66,15869766
2721,1924.37,15816531
2722,1664.22,13989514
2723,1593.3,13369065
2724,1752.65,14459541
2725,2029.33,16583256
2726,1785.28,14798302
2727,1770.88,15120875
2728,1708.76,14628909
2729,1778.63,15084841
2730,1605.15,13498600
2731,1619.15,14341824
2732,1717.2,14501972
2733,1872.63,15806121
2734,1783.37,15500554
2735,1833.14,15423450
2736,1550.73,13350063
2737,1639.26,14540864
2738,1539.75,13453785
2739,1511.43,13148913
2740,1638.34,13750493
2741,1543.75,13240210
2742,1445.14,12313585
2743,1546.79,13578980
2744,1745.56,14982003
2745,1629.83,13847445
2746,1540.69,13675054
2747,1826.03,15382084
2748,1617.92,13949914
2749,1732.35,14588762
2750,1675.01,14714131
2751,1643.04,14334662
2752,1992.62,16671030
2753,1906.13,16033004
2754,1528.17,13064085
2755,1663.58,14389435
2756,1605.41,14109967
2757,1798.82,15324650
2758,1846.77,15515289
2759,1776.97,15502506
2760,1580.17,13599715
2761,1806.68,15720034
2762,2168.02,17660375
2763,1647.7,13808387
2764,1692.27,14600080
2765,1657.89,13991194
2766,1825.82,15438684
2767,1629.74,14129505
2768,1483.21,13034731
2769,1704.41,14333850
2770,1510.08,12798986
2771,1675.67,14236215
2772,1538.72,13224257
2773,1920.11,15882405
2774,1642.87,14110407
2775,1907.8,15824455
2776,1783.63,15327219
2777,1568.81,13475715
2778,1678.84,14194250
2779,1891.13,16110211
2780,1461.32,13031737
2781,1829.09,15212121
2782,1683.92,14516237
2783,1560.62,13210507
2784,1893.9,16080484
2785,1834.2,15449564
2786,1686.96,14169669
2787,1624.52,14061598
2788,1702.86,14190244
2789,1678.36,14350747
2790,1659.69,14209420
2791,1940.82,16339435
2792,1872.17,15515687
2793,1683.8,14198282
2794,1695.97,14086333
2795,1730.56,14973521
2796,1828.57,15224540
2797,1766.18,15290286
2798,1749.0,14696944
2799,1853.02,15532728
2800,1429.24,12690568
2801,1709.74,14855124
2802,1729.59,14740933
2803,1542.38,13334478
2804,1683.26,14125804
2805,1587.33,13951656
2806,1585.01,13510202
2807,1562.06,13518257
2808,1580.97,13819598
2809,1567.79,13697150
2810,1584.62,13447398
2811,1564.82,13939106
2812,1661.08,14179088
2813,1591.64,13562423
2814,1457.77,12993094
2815,1771.34,14737402
2816,1411.89,12624538
2817,1682.87,14178816
2818,1375.19,12133441
2819,1486.11,12856719
2820,1557.86,13273310
2821,1573.49,13561112
2822,1505.45,13564439
2823,1693.82,14266177
2824,1592.76,13682161
2825,1750.64,14725042
2826,1513.98,12861380
2827,1638.31,14047112
2828,1570.11,13530771
2829,1712.7,14605349
2830,1558.33,13480369
2831,1517.29,13378524
2832,1606.43,13633824
2833,1469.34,13177062
2834,1703.67,14280582
2835,1559.26,13653112
2836,1435.43,12479421
2837,1586.09,14341342
2838,1408.52,12257728
2839,1492.09,12953170
2840,1556.81,13402700
2841,1613.53,13671263
2842,1717.21,14303353
2843,1792.8,15304781
2844,1696.41,14366742
2845,1720.39,14750648
2846,1551.01,13303505
2847,1712.74,14653459
2848,1513.12,13287154
2849,1588.68,13759281
2850,1577.7,13533103
2851,1430.87,12419734
2852,1517.78,12910817
2853,1788.87,14799468
2854,1514.97,12959663
2855,1608.02,14422079
2856,1542.83,13105649
2857,1602.01,13859435
2858,1621.55,14065299
2859,1626.97,14040867
2860,1639.64,13998714
2861,1643.45,14690531
2862,1602.02,13957392
2863,1543.46,13878949
2864,1480.51,12826597
2865,1517.71,13015675
2866,1357.22,12034689
2867,1615.67,14257828
2868,1367.0,11974541
2869,1627.01,14369412
2870,1488.22,12878569
2871,1576.17,13780576
2872,1545.39,13316804
2873,1597.81,14062311
2874,1558.18,13465740
2875,1622.04,13840169
2876,1478.74,12718745
2877,1816.62,15329707
2878,1469.01,12780442
2879,1613.38,13778272
2880,1411.01,12359216
2881,1494.48,12883661
2882,1414.58,12367780
2883,1747.9,14463619
2884,1374.38,12041450
2885,1543.57,13469875
2886,1434.49,12248673
2887,1548.51,13806251
2888,1573.37,13643579
2889,1690.4,14341750
2890,1639.59,13974213
2891,1424.41,12477306
2892,1520.39,13017589
2893,1535.26,13477186
2894,1553.08,13161053
2895,1285.67,11380365
2896,1385.46,12313296
2897,1735.88,14924706
2898,1509.42,12927645
2899,1634.82,14144284
2900,1498.92,12768898
2901,1758.47,14848792
2902,1524.88,13292223
2903,1598.67,13565285
2904,1486.69,12926732
2905,1842.88,15592954
2906,1634.36,13800818
2907,1541.47,13517288
2908,1491.61,13124620
2909,1700.81,14452525
2910,1580.41,13492771
2911,1735.24,14921976
2912,1370.99,11769446
2913,1628.93,13899250
2914,1653.84,14063948
2915,1631.57,13896537
2916,1425.49,12839625
2917,1585.26,13278319
2918,1512.81,12678599
2919,1566.05,13246311
2920,1356.96,11970576
2921,1602.71,13745688
2922,1709.95,14677123
2923,1625.51,13787543
2924,1627.98,14033764
2925,1594.54,13975876
2926,1614.0,14363774
2927,1696.94,15173581
2928,1458.4,12973011
2929,1534.05,13177965
2930,1376.29,12047238
2931,1471.33,12770162
2932,1388.63,12491755
2933,1471.34,12817565
2934,1383.51,12325685
2935,1655.66,13992103
2936,1507.23,13133784
2937,1564.06,13187753
2938,1530.13,13095338
2939,1567.58,13717661
2940,1688.13,14542152
2941,1769.92,14549900
2942,1482.47,13073621
2943,1730.05,15152838
2944,1501.47,13517233
2945,1575.11,13378150
2946,1389.37,12743067
2947,1452.7,12632357
2948,1518.93,13134399
2949,1628.78,13910303
2950,1668.51,14416224
2951,1465.2,13150775
2952,1426.71,12795917
2953,1353.82,12414988
2954,1489.45,13011509
2955,1621.19,14158459
2956,1530.52,13116115
2957,1406.53,12630676
2958,1519.03,13193927
2959,1514.43,13551893
2960,1550.17,13461346
2961,1494.61,12939447
2962,1505.58,13289466
2963,1569.72,13919683
2964,1516.05,13479041
2965,1640.87,13914462
2966,1507.77,12952131
2967,1463.61,13079071
2968,1476.51,12920750
2969,1778.51,14524621
2970,1612.39,13644199
2971,1656.09,14451473
2972,1512.97,12940692
2973,1616.26,13764069
2974,1408.12,12799354
2975,1609.27,14087755
2976,1315.93,12014278
2977,1615.11,13868157
2978,1697.86,14636771
2979,1441.39,12476494
2980,1587.41,13553965
2981,1598.71,14166835
2982,1223.86,11261313
2983,1681.99,14432426
2984,1450.79,12849432
2985,1674.6,14412876
2986,1494.65,13231898
2987,1406.2,12712649
2988,1377.4,12504909
2989,1452.0,12721417
2990,1685.59,14287711
2991,1395.72,12660890
2992,1453.01,12824942
2993,1592.4,13648513
2994,1230.77,11201895
2995,1567.47,13543636
2996,1460.91,12932056
2997,1623.36,13810895
2998,1357.88,12160273
2999,1434.94,13358298
3000,1520.79,13511787
3001,1454.31,12563633
3002,1366.6,11894728
3003,1428.58,12532625
3004,1633.29,14424280
3005,1490.73,13024700
3006,1439.32,12773988
3007,1496.52,13215154
3008,1354.23,11900356
3009,1588.89,13887192
3010,1606.19,13228702
3011,1474.27,12817077
3012,1487.49,12964343
3013,1521.58,13420182
3014,1566.81,13331449
3015,1554.15,13373190
3016,1613.9,14199277
3017,1490.44,13006986
3018,1524.93,13482015
3019,1562.3,13811045
3020,1511.56,13556378
3021,1604.25,13889188
3022,1620.35,13897300
3023,1545.26,13475091
3024,1465.72,12807842
3025,1464.64,12791970
3026,1449.08,12678046
3027,1395.53,12583422
3028,1483.7,12707069
3029,1700.11,14525133
3030,1303.4,11622252
3031,1658.56,14090919
3032,1636.57,14285303
3033,1413.88,12637035
3034,1413.65,12398065
3035,1580.68,13905158
3036,1672.19,14386406
3037,1727.07,14872501
3038,1515.68,13429565
3039,1568.38,13878177
3040,1446.63,12750891
3041,1737.23,14777321
3042,1595.6,13224671
3043,1519.29,13374205
3044,1396.31,12103467
3045,1569.68,13464122
3046,1492.51,12938458
3047,1514.55,13512761
3048,1600.2,13665968
3049,1586.53,13974759
3050,1357.68,11919178
3051,1517.65,13547420
3052,1504.2,13234459
3053,1458.49,12534972
3054,1591.74,13650372
3055,1443.24,12717875
3056,1497.29,13504847
3057,1545.38,13535918
3058,1383.67,12421649
3059,1529.73,13427669
3060,1481.71,13193714
3061,1536.44,13662825
3062,1448.93,12914439
3063,1495.22,13318063
3064,1469.69,12910435
3065,1626.88,14222659
3066,1312.82,11788148
3067,1569.49,13539960
3068,1496.71,12469354
3069,1748.95,14629475
3070,1479.02,12995372
3071,1568.31,13376900
3072,1614.7,14083824
3073,1765.78,15272376
3074,1752.5,14299724
3075,1701.23,14633919
3076,1614.22,13977892
3077,1655.11,14279723
3078,1746.84,14827892
3079,1859.86,15797796
3080,1616.28,13816934
3081,1707.69,14744027
3082,1784.66,15325791
3083,1798.27,15430336
3084,1780.97,15556420
3085,1769.4,15710095
3086,1882.24,16387831
3087,1732.03,15468316
3088,1659.88,14004186
3089,1648.37,14046981
3090,1675.46,14722539
3091,1607.34,13369083
3092,1685.69,14528488
3093,1819.84,14892698
3094,1730.73,14791913
3095,1730.76,14794473
3096,1518.1,13373395
3097,1823.08,15308883
3098,1675.61,14519162
3099,1638.84,13823912
3100,1894.71,15647181
3101,1769.73,14899499
3102,1696.92,14413610
3103,1762.54,15163294
3104,1774.94,14782612
3105,1649.53,14477165
3106,1772.67,14780906
3107,1734.9,14741005
3108,1629.19,13857608
3109,1813.04,14990162
3110,1703.11,14830603
3111,1853.13,15486221
3112,1615.3,13974379
3113,1603.12,13999744
3114,1819.6,16020809
3115,1677.53,14894225
3116,1822.11,15520630
3117,1879.44,16036305
3118,1680.53,14208363
3119,1756.92,14995067
3120,1556.66,13581061
3121,1554.07,13242723
3122,1578.06,13418737
3123,1673.96,14119415
3124,1567.75,13466578
3125,1677.46,14529184
3126,1777.95,14943405
3127,1708.33,14845001
3128,1517.68,13860270
3129,1681.74,14688243
3130,1663.32,14158109
3131,1626.54,14510998
3132,1757.72,14898302
3133,1690.02,15242511
3134,1770.33,15061138
3135,1674.63,14654621
3136,1722.12,14761290
3137,1776.7,14933802
3138,1801.49,15482971
3139,1820.56,15471294
3140,1717.78,14188180
3141,1669.81,14550816
3142,1808.04,15463547
3143,1695.75,14696982
3144,1645.17,14019428
3145,1761.66,14995730
3146,1705.19,14988083
3147,1640.42,14164314
3148,1847.39,15360832
3149,1955.67,17048690
3150,1821.81,15401069
3151,1834.62,15381498
3152,1581.85,13488352
3153,1791.35,14961818
3154,1643.74,14198454
3155,1697.87,14375856
3156,1595.82,13918389
3157,1635.56,14223877
3158,1580.26,13948370
3159,1885.43,16106226
3160,1723.66,14734510
3161,1674.43,14411353
3162,1569.97,13372329
3163,1723.72,14275353
3164,1739.8,15010683
3165,1670.26,14598977
3166,1636.46,14310937
3167,1921.24,15932387
3168,1790.97,15139144
3169,1672.51,14180659
3170,1762.95,15143804
3171,1775.26,15241609
3172,1666.0,14492539
3173,1796.93,14741333
3174,1892.07,15819566
3175,1580.98,13494859
3176,1777.46,15410427
3177,1692.23,14388349
3178,1726.4,14757802
3179,1629.66,13949808
3180,1808.07,15554149
3181,1900.67,15650266
3182,1747.69,14809566
3183,1711.22,14698664
3184,1678.26,14189784
3185,1560.77,13293374
3186,1609.53,13655916
3187,1668.81,14497975
3188,1685.84,14628603
3189,1703.49,14513619
3190,1699.58,14571941
3191,1612.44,13938348
3192,1602.53,13807683
3193,1715.71,14674389
3194,1671.65,15064531
3195,1782.4,15320646
3196,1557.4,13301428
3197,1779.42,14746694
3198,1686.08,14113581
3199,1659.82,14209524
3200,1669.84,14512362
3201,1677.34,14620867
3202,1698.37,14711826
3203,1703.33,14573191
3204,1610.74,14309623
3205,1659.36,14306113
3206,1930.87,16216632
3207,1664.56,14682987
3208,1794.86,15601593
3209,1815.06,15072708
3210,1539.25,13216299
3211,1746.16,15486517
3212,1678.89,14571996
3213,1629.66,14349894
3214,1745.35,14491107
3215,1670.46,14658098
3216,1578.12,13554521
3217,1587.49,13569021
3218,1450.6,12820474
3219,1538.36,13316398
3220,1539.66,13686887
3221,1584.66,13940361
3222,1589.91,13979310
3223,1572.38,13420929
3224,1617.21,14357331
3225,1629.95,14225580
3226,1578.37,13913469
3227,1733.47,14987310
3228,1661.98,13886062
3229,1662.67,14602053
3230,1603.77,13826769
3231,1646.0,14576736
3232,1764.39,15326152
3233,1604.88,13911447
3234,1626.74,14308686
3235,1583.25,14005001
3236,1732.74,14728350
3237,1775.32,15233935
3238,1727.94,14745511
3239,1576.12,13675772
3240,1800.51,15466979
3241,1767.97,15119591
3242,1745.17,14634930
3243,1693.91,14588957
3244,1853.06,15119291
3245,1736.69,15177737
3246,1604.34,13973382
3247,1572.8,14022301
3248,1427.68,12633563
3249,1680.28,14345144
3250,1637.94,14309156
3251,1496.65,13423570
3252,1538.25,13435750
3253,1613.36,13475733
3254,1536.17,12838324
3255,1565.97,13638249
3256,1490.39,13038927
3257,1569.24,13801271
3258,1516.63,12998273
3259,1576.37,14053835
3260,1669.72,14412570
3261,1682.36,14652935
3262,1727.08,14890717
3263,1515.27,13016528
3264,1753.3,15082275
3265,1684.86,14629543
3266,1876.22,15513312
3267,1633.67,14076435
3268,1690.62,14359955
3269,1831.28,15207418
3270,1774.03,14649014
3271,1727.13,14837092
3272,1790.56,15626792
3273,1510.92,13215910
3274,1738.02,15152539
3275,1718.36,14818341
3276,1609.81,13863048
3277,1774.82,14978831
3278,1560.09,13790055
3279,1708.1,14639115
3280,1639.58,14220036
3281,1845.14,15336203
3282,1591.38,13662649
3283,1635.45,13646307
3284,1625.41,13923627
3285,1920.39,16751442
3286,1730.61,14556359
3287,1621.29,14148038
3288,1604.36,13810767
3289,1763.64,15434008
3290,1632.01,13900642
3291,1492.84,13027036
3292,1536.52,13836022
3293,1591.74,14108971
3294,1557.63,13715510
3295,1928.92,16765893
3296,1570.29,13816080
3297,1704.87,14442248
3298,1711.81,14527112
3299,1748.37,14694006
3300,1576.4,13750505
3301,1890.89,15962038
3302,1688.71,14656253
3303,1779.05,14807792
3304,1811.15,15967574
3305,1591.39,13889817
3306,1656.03,14209867
3307,1509.19,12935103
3308,1858.26,15915097
3309,1787.58,14770699
3310,1763.46,15004001
3311,1519.37,13523168
3312,1708.59,14727375
3313,1518.31,13295584
3314,1631.44,13794989
3315,1358.69,12457321
3316,1476.84,13182561
3317,1492.43,13598449
3318,1688.02,14080932
3319,1681.75,14369982
3320,1709.88,14935940
3321,1415.43,12891082
3322,1729.73,15153749
3323,1766.7,15308946
3324,1513.25,13321945
3325,1637.12,14533811
3326,1508.44,13397133
3327,1609.77,13738611
3328,1362.37,12002947
3329,1674.42,13928543
3330,1553.76,13421487
3331,1549.24,13552929
3332,1610.7,13756951
3333,1598.39,13521883
3334,1444.51,12374364
3335,1527.59,13285112
3336,1395.54,12322806
3337,1770.26,15035303
3338,1503.17,13092845
3339,1762.57,14933596
3340,1524.84,13048081
3341,1618.49,13765491
3342,1646.66,14067691
3343,1619.1,13638256
3344,1452.81,12479687
3345,1420.01,12545217
3346,1422.49,12605299
3347,1726.48,14782319
3348,1709.21,14142542
3349,1730.62,14607320
3350,1604.24,13349950
3351,1777.54,14738494
3352,1458.49,12708036
3353,1647.74,13725512
3354,1755.12,15374067
3355,1773.1,15036567
3356,1638.17,13900488
3357,1786.19,15051791
3358,1603.19,13809781
3359,1908.88,16057878
3360,1470.67,12905332
3361,1748.7,14746227
3362,1550.7,13584441
3363,1583.45,13644013
3364,1522.11,13303554
3365,1679.75,14479006
3366,1568.14,12952362
3367,1595.04,13515882
3368,1677.03,14278830
3369,1612.34,14022647
3370,1530.96,13127204
3371,1742.34,14799412
3372,1590.04,13840170
3373,1662.8,14230015
3374,1646.36,14248893
3375,1682.75,14282596
3376,1450.16,12809065
3377,1540.3,13276005
3378,1604.38,14213202
3379,1576.0,13779399
3380,1519.24,13208484
3381,1643.65,13764479
3382,1677.15,14434903
3383,1771.84,14915320
3384,1555.2,13466661
3385,1773.76,15154826
3386,1590.83,13227387
3387,1610.65,13760268
3388,1498.12,12905347
3389,1569.78,13810806
3390,1653.26,14104321
3391,1582.2,13426127
3392,1368.32,11790815
3393,1723.18,14791922
3394,1365.29,11871510
3395,1591.95,13719935
3396,1557.88,13270936
3397,1644.03,14208922
3398,1452.42,12989966
3399,1461.5,12986904
3400,1508.63,12803024
3401,1414.39,12325363
3402,1706.98,14448214
3403,1483.91,12747012
3404,1498.27,12984628
3405,1610.92,13900790
3406,1679.93,14238462
3407,1678.85,14795873
3408,1439.68,12418127
3409,1675.17,14335375
3410,1562.34,13691760
3411,1521.04,12885125
3412,1686.96,14100116
3413,1692.61,14569325
3414,1585.19,13600745
3415,1626.61,14296104
3416,1571.04,13599877
3417,1539.55,13657935
3418,1627.61,13693691
3419,1647.39,13882975
3420,1372.9,11901236
3421,1788.36,14712742
3422,1682.71,14139394
3423,1706.39,14574431
3424,1706.5,14674081
3425,1564.01,13581595
3426,1384.01,12363240
3427,1643.72,13970432
3428,1371.84,11465031
3429,1581.89,13181313
3430,1741.78,14886127
3431,1650.29,14466428
3432,1772.63,15320636
3433,1668.13,14129681
3434,1626.54,14174831
3435,1663.53,14167406
3436,1627.98,13926449
3437,1762.1,14643049
3438,1611.07,14434333
3439,1568.56,12874993
3440,1349.92,11947994
3441,1576.06,13752968
3442,1421.95,12340762
3443,1561.09,13460396
3444,1486.78,12901772
3445,1653.29,14101965
3446,1529.9,13052565
3447,1538.32,13367247
3448,1769.16,14572889
3449,1696.21,14100443
3450,1548.47,13421008
3451,1615.73,14147595
3452,1607.86,13388175
3453,1721.71,14577931
3454,1503.69,12979957
3455,1622.98,13943157
3456,1386.96,12325429
3457,1439.62,12718160
3458,1498.08,13198776
3459,1666.13,14041063
3460,1533.65,12847470
3461,1434.62,12320684
3462,1756.96,14724425
3463,1748.6,14811738
3464,1379.09,11980566
3465,1745.25,14590603
3466,1824.31,15610848
3467,1649.19,14453846
3468,1557.14,13455166
3469,1540.28,13227235
3470,1428.6,12719091
3471,1669.49,14148226
3472,1242.74,11512443
3473,1845.42,15692094
3474,1615.61,13684645
3475,1633.88,13699249
3476,1608.41,14039827
3477,1604.1,13694583
3478,1666.52,14075982
3479,1712.15,15037338
3480,1300.96,11342176
3481,1526.47,13124552
3482,1249.36,11270476
3483,1761.56,14857600
3484,1654.94,13917097
3485,1565.8,13557253
3486,1620.11,13614274
3487,1707.19,14497084
3488,1459.58,12247467
3489,1616.54,13661988
3490,1481.9,12720904
3491,1550.77,13193776
3492,1444.57,12692054
3493,1564.63,12988980
3494,1572.16,13141352
3495,1420.38,12653933
3496,1566.58,13385280
3497,1600.21,13756172
3498,1515.0,13231372
3499,1523.39,13421993
3500,1435.2,12664699
3501,1630.75,14257172
3502,1501.56,13242210
3503,1505.71,13336487
3504,1350.09,11897255
3505,1531.34,13773068
3506,1517.65,13068213
3507,1566.34,13888008
3508,1475.67,12788671
3509,1538.26,13493073
3510,1475.98,13179935
3511,1435.31,12147096
3512,1412.57,13030618
3513,1594.71,13975115
3514,1528.67,13222624
3515,1600.43,13722450
3516,1670.3,14462574
3517,1520.13,12919891
3518,1622.5,13819822
3519,1573.23,13521128
3520,1579.33,13542236
3521,1577.39,13751213
3522,1621.0,13755509
3523,1411.96,12352595
3524,1395.76,12166183
3525,1734.03,14909876
3526,1694.98,14394062
3527,1521.75,12914133
3528,1700.76,14349127
3529,1573.12,13448076
3530,1697.48,14485535
3531,1686.25,14592176
3532,1581.75,13434666
3533,1628.54,14208559
3534,1428.49,12817496
3535,1507.17,13366845
3536,1550.35,13549571
3537,1599.52,13756757
3538,1479.13,12929872
3539,1553.08,13608003
3540,1467.94,12921876
3541,1725.21,14505034
3542,1498.81,12910356
3543,1636.14,13702388
3544,1487.66,12975040
3545,1811.7,15336329
3546,1758.13,14796913
3547,1682.08,14369156
3548,1448.83,12723550
3549,1606.53,13811649
3550,1696.66,14164866
3551,1602.93,14149540
3552,1577.32,13423110
3553,1580.89,13436719
3554,1523.67,12973177
3555,1611.79,13862397
3556,1606.42,13736209
3557,1773.59,15058413
3558,1662.73,14137981
3559,1563.17,13706935
3560,1582.91,13820316
3561,1569.95,13785166
3562,1589.23,13864479
3563,1496.94,13038813
3564,1704.51,14481466
3565,1727.5,14818301
3566,1576.89,13636630
3567,1570.05,13644819
3568,1428.05,12299585
3569,1554.5,13535087
3570,1468.46,12956803
3571,1650.18,13927982
3572,1440.38,12669365
3573,1565.25,13745948
3574,1594.29,13976274
3575,1448.06,12755709
3576,1451.66,12806384
3577,1582.46,13334811
3578,1529.4,13360742
3579,1582.49,13697472
3580,1509.56,12921666
3581,1482.87,13200763
3582,1419.99,12365272
3583,1661.97,14469295
3584,1698.78,14455280
3585,1812.7,15679904
3586,1729.65,14557073
3587,1931.05,16030809
3588,1803.14,15201289
3589,1732.0,14790544
3590,1642.75,13975739
3591,1750.04,14893157
3592,1859.37,15376372
3593,1872.55,15413172
3594,1753.94,14526599
3595,1805.44,15296182
3596,1646.68,14423616
3597,1894.4,15958175
3598,1830.37,15208623
3599,1633.09,13806377
3600,1529.11,13322021
3601,2014.68,16493153
3602,1658.79,13981500
3603,1913.71,15794243
3604,1524.63,13499137
3605,1835.25,15328479
3606,1725.38,14546935
3607,1789.06,14977921
3608,1793.65,15516929
3609,1692.23,14590426
3610,1757.96,15053283
3611,1664.83,14229085
3612,1806.19,15023554
3613,1886.63,15561486
3614,1752.24,14312212
3615,1808.46,15908227
3616,1629.92,14404650
3617,1823.69,15277940
3618,1762.45,15074143
3619,1987.02,16512620
3620,1655.24,14604745
3621,1665.75,14369976
3622,1821.2,15435827
3623,1795.87,16068673
3624,1773.47,15193378
3625,1909.16,15676141
3626,1822.12,15914030
3627,1780.49,14967499
3628,1845.51,15853600
3629,1679.33,14075275
3630,1899.45,16220738
3631,1928.45,16044714
3632,1683.34,14588314
3633,1618.54,13946749
3634,1599.69,13841686
3635,1469.13,13366966
3636,1547.08,13220980
3637,1649.95,13687211
3638,1676.73,14326048
3639,1581.29,13546512
3640,1884.89,15793317
3641,1737.17,14489595
3642,1790.13,15268677
3643,1658.76,14009718
3644,1657.34,14220294
3645,1896.51,16244525
3646,1598.83,13930544
3647,1691.55,14962763
3648,1614.68,13602233
3649,1856.42,15457953
3650,1808.9,15397273
3651,1703.13,14132478
3652,1866.2,15385778
3653,1765.81,15068887
3654,1791.46,15095516
3655,1871.87,15704049
3656,1747.0,14749566
3657,1729.18,14640726
3658,1787.96,15170111
3659,1557.87,12946169
3660,1739.36,15018284
3661,1686.97,14605951
3662,1868.86,16044305
3663,1707.22,14818512
3664,1671.19,14122455
3665,1842.13,15563050
3666,1513.59,13279725
3667,1630.87,13870989
3668,1597.34,13841714
3669,1799.44,14624306
3670,1697.47,14455966
3671,1705.82,14188350
3672,1449.39,12669882
3673,1786.5,14941011
3674,1620.12,13937335
3675,1873.02,15531844
3676,1845.18,15162258
3677,1912.69,15995778
3678,1835.36,15481052
3679,1558.01,13883616
3680,1539.48,13466240
3681,1965.47,16131957
3682,1721.56,14657472
3683,1766.51,15159103
3684,1842.17,15763940
3685,1760.05,15074210
3686,1883.91,15901713
3687,1580.32,13783986
3688,1844.85,15313969
3689,1992.15,16386449
3690,1985.83,16608870
3691,1766.33,15152940
3692,1859.16,15692297
3693,1951.76,16466800
3694,1708.95,15003010
3695,1763.83,14833695
3696,1645.75,14179491
3697,1798.98,15135235
3698,1613.07,13511327
3699,1869.88,16041088
3700,1629.0,14092557
3701,1639.73,14123434
3702,1698.55,13977878
3703,1688.61,14476794
3704,1635.41,13932632
3705,1780.92,14722741
3706,1634.08,13878798
3707,1601.9,13897032
3708,1715.99,14371895
3709,1814.63,15668704
3710,1739.75,14888387
3711,1758.19,14839829
3712,1616.48,13954570
3713,1909.44,16299949
3714,1672.95,14277165
3715,1490.39,13260728
3716,1689.14,14272830
3717,1728.11,14711080
3718,1716.65,14825093
3719,1785.75,15494616
3720,1648.57,14327986
3721,1663.94,14654993
3722,1641.07,14296654
3723,1570.74,13559625
3724,1815.99,15425613
3725,1648.73,14283603
3726,1766.31,14929435
3727,1686.18,14802363
3728,1696.09,14443564
3729,1686.23,14375237
3730,1445.59,12687982
3731,1871.02,15235413
3732,1618.56,13625444
3733,1675.12,13750444
3734,1661.8,14613864
3735,1697.95,14818194
3736,1474.46,12648796
3737,1705.74,14674778
3738,1519.03,13147795
3739,1742.58,15105233
3740,1580.89,13542730
3741,1502.75,13181080
3742,1610.11,13766525
3743,1572.58,13955030
3744,1771.02,14621889
3745,1951.7,16386212
3746,1854.1,15711152
3747,1615.45,13735466
3748,1741.14,14773994
3749,1607.01,13872431
3750,1907.27,16127192
3751,1747.1,14668157
3752,1748.25,15154960
3753,2123.77,17465354
3754,1761.52,15337399
3755,1703.9,14795552
3756,1694.42,14033159
3757,1867.82,15759739
3758,1783.51,14341802
3759,1619.47,14186681
3760,1531.63,13070034
3761,1846.39,15596669
3762,1500.63,13234928
3763,1653.0,14486765
3764,1610.07,13775834
3765,1498.24,13246666
3766,1701.0,14523108
3767,1641.02,14505912
3768,1546.48,13334552
3769,1686.91,15015227
3770,1781.74,14854488
3771,1529.23,13319601
3772,1549.67,13550557
3773,1778.77,15305482
3774,1585.47,13713230
3775,1763.73,14844422
3776,1640.87,13795626
3777,1713.67,15040955
3778,1885.6,15680176
3779,1798.91,15443507
3780,1840.7,15645229
3781,1731.79,15148283
3782,2035.52,16946475
3783,1723.27,14809268
3784,1720.01,14895439
3785,1828.49,15595184
3786,1710.53,14759922
3787,1497.44,12988406
3788,1717.55,14585189
3789,1729.48,14318628
3790,1848.8,15838428
3791,1829.01,15787992
3792,1486.75,13258390
3793,1979.45,15943245
3794,1594.12,13426375
3795,1531.83,13289941
3796,1762.92,14850365
3797,1772.64,15479910
3798,1617.33,13995630
3799,1632.93,14115495
3800,1759.31,14670644
3801,1641.41,14252572
3802,1711.77,14285475
3803,1773.63,15354171
3804,1754.19,14381712
3805,1694.72,14418293
3806,1640.6,14052530
3807,1704.11,14901885
3808,1839.6,15459967
3809,1908.13,15904280
3810,1610.55,13642525
3811,1569.05,13975573
3812,1812.54,15403593
3813,1847.25,15174641
3814,1607.54,13260901
3815,1618.81,14226861
3816,1623.73,14412289
3817,1577.88,13744843
3818,1704.37,14731004
3819,1763.06,14890537
3820,1611.97,13916207
3821,1620.97,14189219
3822,1832.12,15564503
3823,1598.4,13816825
3824,1338.77,12068587
3825,1549.67,13501307
3826,1563.65,13666060
3827,1935.16,16070087
3828,1505.3,13575161
3829,1640.79,14282476
3830,1486.95,12959921
3831,1613.9,14468595
3832,1738.48,14836991
3833,1816.18,15460887
3834,1788.35,14667128
3835,1642.27,14375810
3836,1616.36,14263121
3837,1746.36,14766960
3838,1754.21,14877695
3839,1633.15,14282449
3840,1506.65,13342423
3841,1543.57,13665121
3842,1519.84,13703961
3843,1549.28,13660023
3844,1649.33,14205298
3845,1460.17,12943280
3846,1376.75,11949946
3847,1569.64,13688979
3848,1497.95,13255637
3849,1681.89,14266711
3850,1418.54,12885786
3851,1550.36,13513862
3852,1392.43,12602855
3853,1616.27,14201179
3854,1593.73,13699355
3855,1441.36,12743746
3856,1617.62,14303461
3857,1586.63,13907126
3858,1634.49,13749405
3859,1700.33,14940902
3860,1386.52,12521525
3861,1529.95,13713987
3862,1370.55,12393732
3863,1650.56,14314350
3864,1545.98,13590072
3865,1587.61,13626129
3866,1742.59,14523261
3867,1561.43,13749875
3868,1524.62,13414967
3869,1649.52,14041724
3870,1629.11,13765644
3871,1798.55,15654134
3872,1332.48,11682209
3873,1608.4,13785729
3874,1484.7,12915161
3875,1380.79,11835531
3876,1507.73,13197135
3877,1475.52,12867055
3878,1556.92,13656956
3879,1404.65,12031151
3880,1537.47,13530557
3881,1693.59,15019154
3882,1480.7,13455004
3883,1612.97,14014879
3884,1634.48,14377621
3885,1467.7,12609611
3886,1577.89,13733662
3887,1497.4,13251796
3888,1477.29,13106965
3889,1434.5,12598390
3890,1495.91,12954944
3891,1483.71,13243531
3892,1454.98,12787389
3893,1758.05,14774713
3894,1257.66,11297370
3895,1539.58,13625222
3896,1466.32,13024487
3897,1607.89,14027554
3898,1592.21,13658947
3899,1754.27,15079470
3900,1544.41,13618934
3901,1693.83,14259202
3902,1472.87,12861619
3903,1464.09,13019315
3904,1498.51,13321241
3905,1547.76,13397109
3906,1409.81,12507885
3907,1456.51,12696097
3908,1403.08,12535213
3909,1507.15,13198391
3910,1508.3,13125760
3911,1545.46,13850093
3912,1518.73,13417974
3913,1635.93,14195254
3914,1543.84,13658158
3915,1607.06,14109365
3916,1421.97,12514861
3917,1585.68,13860381
3918,1488.1,12938226
3919,1570.25,13519064
3920,1462.62,12862403
3921,1860.09,16078758
3922,1582.45,13249886
3923,1565.87,13572523
3924,1540.33,13012610
3925,1822.4,15127213
3926,1485.18,13262817
3927,1450.08,12638402
3928,1537.38,13337920
3929,1727.19,14879732
3930,1532.94,13119706
3931,1658.73,14184647
3932,1399.18,12267103
3933,1849.71,15106895
3934,1471.77,13402479
3935,1558.78,13518026
3936,1489.23,12987461
3937,1472.52,13035592
3938,1638.62,13997391
3939,1621.75,14202183
3940,1467.58,12886339
3941,1496.4,13044480
3942,1628.97,13864075
3943,1445.49,12749873
3944,1656.4,14479005
3945,1713.34,14618325
3946,1673.31,14502075
3947,1561.76,13765640
3948,1386.25,12358067
3949,1530.33,13246636
3950,1623.75,13938162
3951,1566.13,13965899
3952,1486.43,12958062
3953,1462.08,12972196
3954,1518.88,13181676
3955,1625.65,13926238
3956,1379.22,12106905
3957,1618.13,13975102
3958,1387.03,12259950
3959,1559.54,13644906
3960,1531.91,13566507
3961,1512.18,13321687
3962,1513.9,13483403
3963,1609.59,14221454
3964,1442.95,12760412
3965,1644.9,14192838
3966,1354.21,12110709
3967,1528.75,13171736
3968,1507.09,13511734
3969,1648.98,14477845
3970,1402.66,12284380
3971,1682.61,14273765
3972,1358.18,12436904
3973,1525.97,13459454
3974,1455.18,12610309
3975,1474.01,13023691
3976,1640.44,14189989
3977,1596.42,13837744
3978,1591.54,13698382
3979,1391.08,12338766
3980,1571.97,13730335
3981,1514.29,13466586
3982,1525.85,13219655
3983,1558.3,13329701
3984,1518.74,13142589
3985,1616.55,14156274
3986,1478.78,12781358
3987,1585.4,13873185
3988,1417.31,12893598
3989,1392.56,12736244
3990,1523.34,13129012
3991,1583.0,13565510
3992,1442.28,12585173
3993,1667.18,14552753
3994,1341.22,11995059
3995,1533.25,13575992
3996,1679.7,14559494
3997,1560.62,13556074
3998,1540.72,13500099
3999,1526.77,13839455
4000,1422.59,12842882
4001,1637.37,13940372
4002,1624.68,14333487
4003,1573.16,13451282
4004,1368.38,12182043
4005,1666.61,14516480
4006,1475.32,12793831
4007,1619.13,13962278
4008,1505.46,13222986
4009,1552.99,13729507
4010,1577.72,13658358
4011,1499.07,13493038
4012,1575.8,13499838
4013,1536.79,13288900
4014,1435.97,12703046
4015,1489.03,13319881
4016,1227.02,11497378
4017,1530.6,13474871
4018,1346.6,11897888
4019,1466.76,13000668
4020,1387.08,12152308
4021,1581.65,13500862
4022,1320.57,11720718
4023,1527.6,13501025
4024,1374.21,12429329
4025,1656.23,14624344
4026,1482.81,13163423
4027,1562.75,13987558
4028,1266.78,11638003
4029,1626.34,14283621
4030,1417.11,12629750
4031,1487.64,13088425
4032,1410.61,12550211
4033,1617.5,14300857
4034,1322.2,11764936
4035,1561.64,14252470
4036,1404.82,12794770
4037,1491.98,12896912
4038,1373.22,12186270
4039,1405.05,12489864
4040,1361.22,12494509
4041,1640.29,14464947
4042,1508.87,12952709
4043,1335.72,12123815
4044,1381.72,12051022
4045,1583.83,13805811
4046,1520.17,13460120
4047,1585.86,13725629
4048,1386.71,12474245
4049,1460.48,13153066
4050,1547.26,13860399
4051,1455.78,12906091
4052,1662.56,15153522
4053,1678.69,14457955
4054,1510.88,13564603
4055,1565.41,13875411
4056,1359.87,12398970
4057,1707.36,14990411
4058,1625.44,14195922
4059,1621.76,14254385
4060,1472.68,13433815
4061,1693.12,14720378
4062,1649.63,14505231
4063,1623.7,14078148
4064,1493.79,13435102
4065,1502.67,13789615
4066,1464.06,12706480
4067,1284.03,11598251
4068,1520.44,13529906
4069,1634.87,14317002
4070,1351.23,11789193
4071,1558.16,13705996
4072,1623.18,14359388
4073,1782.86,15469459
4074,1598.28,13938180
4075,1454.73,13182068
4076,1593.15,14106611
4077,1603.25,14055588
4078,1552.74,13734387
4079,1618.48,14440727
4080,1471.55,13073931
4081,1530.05,13605365
4082,1363.33,12346648
4083,1496.41,13375595
4084,1330.18,12069874
4085,1569.81,13914461
4086,1421.94,12703533
4087,1481.79,13531742
4088,1417.43,12914704
4089,1400.23,12759833
4090,1316.71,12444473
4091,1539.61,14099800
4092,1411.26,12639459
4093,1645.62,14328230
4094,1373.43,12610432
4095,1571.44,14077732
