index,time,conflicts
0,428.89,4280717
1,240.8,2621601
2,338.52,3483051
3,224.57,2381007
4,360.17,3745438
5,274.71,2922793
6,325.16,3389231
7,168.95,1867132
8,303.78,3124064
9,226.8,2385898
10,251.91,2628876
11,161.14,1750842
12,281.11,2842009
13,209.24,2122401
14,203.52,2211178
15,121.21,1340870
16,261.52,2545551
17,200.2,2147618
18,230.51,2392823
19,185.1,1950286
20,301.75,3149774
21,214.73,2198434
22,252.54,2645318
23,198.43,2133612
24,231.96,2439535
25,191.63,1933146
26,227.79,2356508
27,151.89,1692451
28,233.82,2371362
29,187.73,1904157
30,167.98,1801446
31,132.66,1419905
32,328.05,3403168
33,264.0,2744531
34,334.14,3386444
35,208.49,2261536
36,362.92,3542887
37,251.94,2635766
38,263.24,2828130
39,194.06,2166543
40,285.79,2874893
41,266.74,2693483
42,287.25,2983960
43,167.83,1808000
44,247.33,2484522
45,191.75,2118824
46,206.49,2152890
47,141.1,1544953
48,203.29,2187828
49,230.17,2507847
50,271.68,2933728
51,169.17,1795608
52,225.38,2386765
53,188.52,1981851
54,205.61,2239321
55,164.35,1787667
56,182.41,1992940
57,155.39,1660520
58,235.97,2372481
59,164.25,1766163
60,193.82,2097526
61,161.78,1735672
62,182.09,1914575
63,147.12,1567000
64,419.79,4028272
65,246.71,2624260
66,331.98,3536224
67,223.59,2386026
68,522.31,5022744
69,315.96,3194355
70,309.3,3163353
71,209.46,2293828
72,327.18,3242221
73,222.42,2448142
74,278.66,2827197
75,191.19,2035617
76,308.17,3222153
77,215.72,2209977
78,217.54,2310862
79,144.32,1534016
80,332.29,3531983
81,273.32,2705418
82,293.0,3027624
83,237.84,2491916
84,392.33,4086244
85,282.78,2799810
86,297.64,3128934
87,224.65,2342964
88,245.04,2523404
89,228.76,2381977
90,248.29,2512140
91,166.7,1810308
92,293.59,2927728
93,220.36,2309857
94,219.37,2321099
95,175.87,1841296
96,290.99,2919826
97,257.74,2623477
98,266.34,2900129
99,205.47,2123762
100,365.46,3658436
101,248.74,2651007
102,266.91,2670448
103,201.14,2092853
104,274.41,2947779
105,194.31,2012935
106,209.42,2278914
107,153.15,1663929
108,215.56,2180829
109,198.65,2076498
110,205.37,2133787
111,144.63,1580035
112,186.18,2023185
113,193.76,1993981
114,235.01,2479326
115,159.68,1764013
116,238.95,2481726
117,201.63,2163301
118,254.11,2673272
119,195.72,2074510
120,173.37,1865190
121,175.65,1868506
122,205.36,2262558
123,164.04,1842866
124,191.07,1960132
125,181.68,1898983
126,183.59,1918782
127,153.29,1654769
128,340.23,3544870
129,234.91,2470006
130,314.92,2992763
131,197.46,2030674
132,353.72,3747828
133,262.25,2679491
134,267.37,2749040
135,158.28,1650053
136,284.7,2990948
137,215.38,2213872
138,259.01,2605859
139,164.31,1726463
140,257.05,2590923
141,196.43,1995010
142,189.63,2037205
143,134.76,1471112
144,239.93,2524498
145,219.97,2277935
146,249.84,2527504
147,187.3,1990943
148,256.24,2641442
149,201.73,2188548
150,213.96,2119358
151,176.0,1818327
152,231.75,2325100
153,223.72,2252679
154,246.48,2559043
155,175.19,1848796
156,230.09,2168963
157,176.41,1815157
158,183.59,1897473
159,138.36,1486747
160,290.62,3007505
161,247.1,2466815
162,268.25,2870449
163,203.32,2152684
164,306.47,3116197
165,265.85,2628903
166,260.86,2667188
167,191.36,1982305
168,296.73,3051285
169,219.49,2307630
170,246.56,2502430
171,177.22,1911498
172,259.01,2677091
173,204.41,2044328
174,237.98,2487516
175,152.67,1678616
176,172.63,1863912
177,199.49,2172529
178,237.14,2439308
179,177.67,1947594
180,254.1,2672778
181,179.98,1874004
182,181.89,1940346
183,207.69,2103787
184,173.34,1810824
185,199.48,2066749
186,214.31,2208076
187,170.73,1763791
188,201.08,2072242
189,179.63,1888467
190,189.62,2107327
191,173.76,1840129
192,234.68,2473055
193,246.97,2516020
194,266.05,2705548
195,183.4,1873846
196,305.46,3037262
197,244.4,2530636
198,297.84,2834718
199,161.3,1793175
200,234.54,2479211
201,201.42,2071254
202,223.35,2213291
203,170.87,1882718
204,220.99,2266587
205,196.92,2055917
206,205.32,2238683
207,124.71,1339351
208,197.88,2084618
209,209.82,2124693
210,239.99,2369608
211,195.56,1969658
212,266.59,2713613
213,212.48,2239287
214,253.0,2611434
215,160.04,1732441
216,201.03,2053413
217,197.41,2022567
218,244.27,2399647
219,181.31,1882171
220,210.75,2136119
221,183.21,1936039
222,198.75,2026168
223,170.12,1739205
224,237.87,2333566
225,208.44,2136809
226,233.03,2416558
227,171.21,1778793
228,237.88,2351642
229,186.21,2000734
230,214.93,2219229
231,155.91,1678466
232,226.15,2329549
233,167.07,1778241
234,229.47,2469839
235,160.85,1713739
236,243.28,2576805
237,173.7,1821804
238,182.47,1879606
239,156.19,1706193
240,175.68,1904950
241,185.04,1922017
242,184.26,1942807
243,162.04,1777189
244,204.72,2249728
245,198.43,2033251
246,195.68,2006877
247,168.39,1873985
248,174.83,1855401
249,197.77,2061564
250,196.4,2060190
251,169.09,1811499
252,184.83,1879374
253,191.85,2033226
254,196.78,2101598
255,183.39,1902777
256,262.59,2830154
257,197.21,2124965
258,288.78,2994324
259,173.06,1855933
260,312.53,3190505
261,213.17,2258331
262,220.42,2454596
263,178.36,1947835
264,241.04,2451742
265,165.38,1766753
266,220.02,2293106
267,146.52,1600115
268,196.73,2087112
269,181.81,1861006
270,201.18,2178655
271,140.4,1487970
272,186.56,2008431
273,173.61,1886690
274,215.81,2243120
275,190.4,1943066
276,235.42,2486685
277,220.8,2297919
278,242.78,2531611
279,200.35,2116387
280,191.74,2010020
281,192.24,1948716
282,203.15,2157297
283,203.97,2094610
284,243.79,2580276
285,216.35,2245627
286,233.18,2513595
287,213.2,2302880
288,241.89,2464444
289,228.03,2410033
290,277.83,2829493
291,222.09,2399221
292,275.47,2858340
293,246.56,2578814
294,287.91,2980674
295,238.66,2491827
296,241.12,2548072
297,202.09,2013731
298,218.16,2289011
299,198.37,2137225
300,225.75,2277521
301,271.97,2696442
302,251.39,2575020
303,207.01,2191373
304,213.62,2172707
305,216.61,2322624
306,254.49,2606402
307,241.9,2556421
308,229.32,2438809
309,290.18,2920331
310,268.19,2870137
311,265.41,2875354
312,188.29,1877678
313,224.57,2247122
314,256.15,2658182
315,279.4,2888557
316,265.62,2725316
317,245.41,2668516
318,219.92,2322942
319,263.0,2737074
320,255.91,2601533
321,254.24,2622641
322,297.27,3026483
323,251.14,2572142
324,300.36,3200577
325,275.7,2823866
326,291.26,3044467
327,216.55,2279710
328,252.65,2608872
329,219.54,2232060
330,279.19,2836101
331,203.8,2149791
332,276.31,2819608
333,261.85,2847202
334,240.49,2431999
335,209.46,2284361
336,277.32,2826679
337,220.05,2294183
338,301.96,3075954
339,252.26,2607498
340,320.94,3403660
341,351.75,3617774
342,317.3,3249750
343,332.02,3346556
344,240.95,2504050
345,235.84,2456102
346,266.41,2790405
347,281.43,2883054
348,244.39,2648148
349,280.8,2851025
350,259.83,2630218
351,267.31,2734671
352,233.39,2472934
353,231.1,2379420
354,258.36,2640657
355,217.86,2252759
356,319.5,3288436
357,265.22,2925294
358,289.37,3033163
359,259.24,2637274
360,251.25,2630220
361,240.66,2455922
362,286.09,2864507
363,192.28,2093961
364,238.1,2445358
365,229.11,2372851
366,219.57,2391891
367,237.19,2588948
368,185.22,2030685
369,215.91,2320373
370,250.93,2620190
371,297.75,2963437
372,277.76,2919998
373,329.29,3294796
374,292.53,3036908
375,297.56,3173248
376,222.41,2228538
377,271.07,2730134
378,262.4,2702008
379,297.98,3085951
380,204.4,2162759
381,262.04,2802274
382,302.96,3089146
383,299.26,2913973
384,236.38,2387725
385,209.29,2127532
386,223.54,2322131
387,186.38,1910381
388,255.52,2544357
389,202.66,2153708
390,274.14,2810913
391,170.54,1894005
392,242.41,2500216
393,183.49,1857044
394,259.37,2544683
395,171.48,1783972
396,200.08,2103309
397,183.96,1887919
398,217.93,2305085
399,171.58,1805486
400,215.44,2281860
401,237.78,2459912
402,256.03,2601558
403,234.81,2372525
404,252.02,2560290
405,238.49,2471448
406,250.35,2599797
407,217.09,2324550
408,200.75,2106139
409,222.04,2275913
410,232.83,2339964
411,224.84,2365255
412,230.64,2295050
413,266.9,2600450
414,262.76,2649167
415,257.51,2555744
416,233.79,2522437
417,243.51,2447949
418,239.61,2559935
419,244.76,2529806
420,284.8,2948300
421,265.69,2662282
422,281.22,3047120
423,216.58,2352955
424,244.91,2540549
425,228.0,2257753
426,260.87,2659131
427,225.82,2416168
428,248.33,2480826
429,241.74,2436501
430,219.08,2261746
431,288.68,3050647
432,201.95,2072761
433,240.38,2424924
434,305.52,3136845
435,260.04,2617372
436,246.53,2516549
437,273.86,2919308
438,316.79,3205029
439,301.41,3130131
440,233.29,2296198
441,295.5,2981355
442,257.43,2636334
443,347.28,3520635
444,243.32,2480291
445,329.59,3313269
446,285.69,2851037
447,328.58,3291026
448,200.14,2127023
449,214.7,2192906
450,210.7,2189356
451,236.23,2433008
452,247.04,2500255
453,219.14,2225152
454,226.4,2391339
455,214.54,2189597
456,219.43,2239336
457,199.97,2035612
458,232.71,2461754
459,185.47,2020882
460,233.94,2328749
461,200.17,1970876
462,214.76,2246909
463,193.08,2202803
464,231.21,2275447
465,251.24,2446403
466,278.31,2831619
467,231.42,2432992
468,268.34,2635358
469,317.28,3193903
470,268.21,2706166
471,287.11,3087694
472,242.17,2438176
473,281.87,2857514
474,301.54,2941561
475,324.79,3100676
476,258.63,2644629
477,301.23,3069319
478,265.39,2701911
479,285.19,3136387
480,205.16,2079279
481,199.8,2089973
482,231.64,2507880
483,211.29,2267110
484,262.61,2668625
485,251.14,2652149
486,229.63,2530251
487,235.06,2476629
488,195.74,2029722
489,229.7,2406893
490,243.1,2496198
491,274.38,2931821
492,249.32,2524385
493,201.96,2257880
494,218.39,2400100
495,247.98,2603487
496,189.28,1939172
497,263.67,2816489
498,233.91,2484196
499,305.19,3062358
500,232.6,2400046
501,309.87,3056546
502,288.9,3011104
503,363.82,3704775
504,213.78,2171609
505,277.46,2704700
506,299.6,3115496
507,294.22,2997252
508,240.52,2459213
509,299.61,3192902
510,316.18,3124221
511,328.35,3245537
512,286.4,2977065
513,201.15,2154690
514,286.52,2868032
515,189.25,2015818
516,321.09,3226750
517,283.22,2830754
518,304.11,2973447
519,178.8,1972501
520,292.51,2886574
521,175.86,1873838
522,243.03,2543052
523,180.99,1888539
524,260.5,2870512
525,173.58,1798133
526,225.01,2429616
527,141.26,1511755
528,292.15,3029283
529,223.63,2309162
530,286.79,2870214
531,218.16,2323601
532,356.22,3289553
533,246.1,2809525
534,256.73,2623891
535,197.48,2083363
536,266.32,2577531
537,211.59,2182021
538,234.72,2419712
539,188.37,1966327
540,273.1,2785430
541,239.88,2465169
542,237.57,2403631
543,196.41,2117663
544,299.26,3127966
545,257.41,2757700
546,343.51,3645898
547,216.88,2360426
548,346.52,3444451
549,286.36,2902239
550,255.24,2656065
551,244.84,2591003
552,232.78,2492414
553,252.2,2554843
554,268.32,2753490
555,188.98,2017296
556,313.87,3056412
557,233.34,2438100
558,256.95,2724794
559,211.88,2261285
560,208.16,2227966
561,232.26,2498357
562,242.43,2617471
563,223.81,2435205
564,276.92,3009253
565,271.62,2803469
566,278.44,2857040
567,270.19,2925470
568,210.39,2206128
569,221.98,2303213
570,261.98,2549724
571,257.63,2673619
572,233.43,2424428
573,210.88,2277841
574,249.78,2636455
575,236.98,2473788
576,308.1,3202176
577,269.69,2819801
578,336.06,3466026
579,219.76,2402678
580,427.31,4431685
581,315.62,3118043
582,299.65,2920567
583,212.47,2271040
584,273.19,2670280
585,228.26,2378543
586,248.52,2664963
587,208.51,2151778
588,253.59,2707631
589,217.83,2395909
590,244.49,2588546
591,167.65,1804997
592,319.48,3104958
593,271.65,2940940
594,272.15,2891369
595,266.01,2813999
596,365.6,3628826
597,329.74,3398053
598,374.09,3749374
599,254.82,2650082
600,250.92,2503659
601,297.35,3020358
602,290.2,2848822
603,248.05,2492196
604,312.34,2969979
605,310.88,3231970
606,272.77,2716683
607,227.36,2484532
608,298.74,3356355
609,267.51,2793352
610,282.15,3009480
611,212.05,2208002
612,313.09,3154395
613,290.98,2942569
614,253.72,2803297
615,248.28,2536854
616,271.59,2616228
617,238.63,2508002
618,239.02,2466207
619,206.65,2217725
620,243.91,2479210
621,231.41,2354630
622,243.51,2606960
623,194.85,2109495
624,217.83,2291247
625,248.12,2541631
626,262.11,2653369
627,264.09,2772576
628,250.88,2585421
629,293.76,3014171
630,288.66,2898670
631,258.85,2848742
632,206.01,2161437
633,242.29,2638130
634,259.39,2631346
635,223.91,2335194
636,249.8,2533251
637,239.39,2438441
638,260.21,2704998
639,231.3,2525905
640,258.83,2615790
641,202.87,2119258
642,287.21,3027286
643,202.08,2177528
644,273.27,2789603
645,250.54,2711802
646,266.79,2639800
647,158.56,1644340
648,306.17,3040333
649,194.62,2046839
650,251.9,2589895
651,189.71,1982137
652,237.44,2512635
653,180.6,1894880
654,224.07,2304406
655,167.77,1740118
656,253.04,2579756
657,226.19,2269216
658,244.26,2562979
659,209.16,2249347
660,309.08,3026344
661,268.33,2903834
662,258.46,2694529
663,214.77,2260149
664,246.98,2439677
665,250.87,2627121
666,295.31,3094886
667,224.61,2219675
668,246.66,2542203
669,277.85,2645167
670,256.42,2640822
671,230.66,2416493
672,284.72,2818746
673,242.05,2586755
674,270.8,2918919
675,245.32,2578392
676,276.58,2881421
677,255.39,2703691
678,303.93,3183450
679,210.8,2300767
680,299.75,3017873
681,259.32,2685343
682,254.19,2573114
683,243.39,2471129
684,283.35,2868456
685,231.77,2419073
686,275.4,2742875
687,212.17,2268657
688,273.2,2780401
689,229.46,2388726
690,283.88,2963381
691,281.36,2698402
692,260.09,2779972
693,268.25,2742590
694,261.25,2831434
695,272.35,2868093
696,240.6,2460172
697,229.64,2462214
698,249.45,2641264
699,247.96,2544337
700,231.3,2366767
701,258.3,2585621
702,229.59,2427936
703,317.07,3164758
704,257.58,2653322
705,222.64,2274615
706,262.01,2745090
707,193.9,2093315
708,317.79,3196271
709,226.39,2319237
710,262.72,2641698
711,209.5,2151108
712,257.8,2520539
713,219.01,2254116
714,283.37,3090776
715,187.83,1932212
716,260.47,2498551
717,213.61,2143493
718,212.01,2230676
719,170.7,1873606
720,225.38,2272625
721,228.5,2366334
722,305.61,3007868
723,253.11,2764744
724,311.65,3135317
725,229.54,2475909
726,270.65,2843372
727,271.25,2767391
728,229.69,2292417
729,307.21,2948054
730,326.05,3348119
731,271.0,3014866
732,258.78,2689859
733,266.75,2636885
734,258.76,2702365
735,232.86,2559104
736,240.7,2450990
737,227.18,2267609
738,256.11,2662061
739,199.04,2141377
740,275.98,2880765
741,264.93,2734364
742,291.64,3111578
743,273.58,2815240
744,213.57,2169635
745,220.91,2234456
746,240.01,2473799
747,229.47,2415407
748,236.81,2430446
749,223.04,2311764
750,239.48,2635402
751,219.08,2397453
752,193.03,2007443
753,262.98,2618723
754,299.61,2885199
755,253.53,2739205
756,198.66,2133948
757,290.17,3107794
758,269.71,2854064
759,263.14,2991656
760,215.43,2205208
761,242.63,2549092
762,256.37,2629809
763,269.16,2922292
764,233.73,2503362
765,290.36,2936498
766,281.69,2940687
767,329.68,3325364
768,201.56,2099220
769,173.11,1855857
770,212.32,2169080
771,154.54,1661064
772,249.03,2526172
773,171.99,1823960
774,234.65,2481630
775,170.24,1855901
776,169.55,1811582
777,173.61,1837542
778,219.19,2321958
779,147.88,1594895
780,181.68,1884935
781,177.11,1903933
782,207.43,2242571
783,153.82,1674047
784,165.74,1761006
785,214.91,2221886
786,190.38,2129369
787,220.15,2357477
788,257.55,2654037
789,240.82,2470295
790,249.15,2640489
791,240.94,2676477
792,165.3,1791197
793,199.01,2126639
794,229.22,2352608
795,241.44,2537760
796,209.25,2159336
797,245.65,2582145
798,268.85,2687557
799,254.92,2686821
800,235.73,2450855
801,208.56,2264778
802,205.02,2191604
803,249.23,2647659
804,239.83,2444249
805,234.41,2478982
806,271.15,2892156
807,259.6,2769700
808,241.4,2512890
809,218.07,2334549
810,228.95,2416233
811,225.18,2438826
812,234.36,2551146
813,253.35,2622027
814,250.21,2637999
815,233.23,2563139
816,204.46,2167499
817,240.01,2585057
818,257.65,2646869
819,305.43,3136038
820,258.77,2573295
821,321.56,3475105
822,289.52,3012266
823,331.21,3669354
824,186.34,2027459
825,274.94,2930479
826,254.85,2629831
827,340.41,3493689
828,218.31,2259416
829,317.0,3123568
830,297.88,3127272
831,347.63,3637433
832,196.94,2107761
833,210.45,2274650
834,231.17,2446527
835,199.7,2211724
836,227.86,2423720
837,238.11,2451479
838,237.24,2568375
839,221.87,2285461
840,176.05,1948356
841,206.19,2075850
842,218.06,2271234
843,207.07,2200380
844,235.2,2448564
845,227.16,2338879
846,222.74,2481662
847,210.28,2203068
848,236.74,2532902
849,270.53,2778216
850,279.5,2947913
851,306.06,3126577
852,307.53,3078202
853,326.83,3198841
854,324.36,3419272
855,352.86,3646964
856,245.27,2517207
857,249.13,2534320
858,312.39,3035255
859,322.91,3314027
860,299.63,2893572
861,290.36,3010051
862,330.4,3366645
863,341.81,3524023
864,215.23,2252997
865,211.6,2193893
866,254.87,2718990
867,232.51,2525483
868,271.37,2837799
869,277.28,2961543
870,246.11,2662373
871,244.56,2672631
872,206.08,2139482
873,232.3,2368466
874,238.45,2538366
875,242.39,2565241
876,230.9,2348627
877,256.77,2662111
878,258.85,2658833
879,277.87,2896409
880,199.0,2036263
881,252.58,2743185
882,302.75,3097224
883,361.22,3890064
884,281.59,3146767
885,336.55,3442942
886,299.25,3278489
887,419.1,4293302
888,228.74,2538747
889,342.83,3343308
890,336.06,3550108
891,377.68,3896561
892,248.45,2672735
893,351.16,3765537
894,345.86,3617849
895,405.07,4086491
896,177.64,1862868
897,176.58,1890957
898,185.72,1947126
899,183.68,2031361
900,200.28,2112368
901,161.01,1740182
902,206.95,2223808
903,189.57,1995399
904,211.8,2141687
905,160.03,1738202
906,223.41,2273111
907,167.64,1826633
908,171.4,1838402
909,214.51,2177072
910,200.47,2075665
911,168.31,1824816
912,177.46,1821479
913,268.15,2709006
914,262.03,2701542
915,263.34,2779720
916,224.79,2266007
917,268.54,2745762
918,248.19,2603779
919,318.85,3173965
920,201.41,1996306
921,281.13,2782560
922,299.43,3082869
923,290.56,3054207
924,247.27,2546189
925,260.8,2697265
926,306.9,3050235
927,374.7,4077902
928,235.03,2385923
929,226.36,2366630
930,235.29,2544608
931,254.27,2637803
932,201.27,2035906
933,262.48,2707304
934,287.47,3100129
935,247.61,2577208
936,190.79,2015565
937,253.92,2563273
938,264.92,2765472
939,334.39,3392735
940,243.42,2510588
941,246.64,2608899
942,267.18,2845554
943,335.36,3506713
944,203.4,2212983
945,294.49,2836231
946,225.7,2469959
947,404.89,4144947
948,237.55,2508332
949,372.0,3781267
950,298.99,3050209
951,418.01,4251519
952,222.07,2207311
953,346.05,3217143
954,335.78,3524739
955,408.5,3783749
956,314.55,3233529
957,389.71,4069694
958,339.05,3440351
959,508.73,5219167
960,173.63,1779852
961,170.45,1842908
962,189.68,1969612
963,213.96,2302396
964,201.59,2122871
965,241.13,2487738
966,227.99,2466725
967,202.46,2150992
968,158.15,1756337
969,208.01,2134451
970,209.84,2197551
971,217.36,2252318
972,215.11,2158965
973,218.46,2225646
974,211.92,2248458
975,240.61,2669208
976,207.66,2085436
977,248.16,2585117
978,272.72,2769092
979,331.66,3488528
980,264.73,2689874
981,340.11,3463713
982,372.08,3774436
983,416.0,4016436
984,205.25,2085646
985,319.29,3108088
986,357.06,3510941
987,415.55,3962182
988,247.37,2591755
989,368.57,3708483
990,334.95,3537013
991,402.58,4130738
992,186.01,1949646
993,215.82,2276257
994,215.33,2287367
995,261.0,2816616
996,213.66,2235613
997,277.29,2874542
998,248.75,2654595
999,305.0,3217918
1000,189.41,1920071
1001,249.13,2556352
1002,234.71,2504788
1003,284.81,3062896
1004,237.94,2381226
1005,241.8,2569249
1006,269.16,2826676
1007,302.95,3284861
1008,198.03,2118611
1009,286.96,3168663
1010,335.0,3439981
1011,357.18,3926062
1012,259.33,2669442
1013,345.19,3590130
1014,309.81,3124548
1015,502.46,5063027
1016,246.24,2538879
1017,391.58,4019624
1018,327.02,3357424
1019,498.28,4944661
1020,295.36,3013810
1021,455.51,4251304
1022,377.17,3709506
1023,525.4,4837219
1024,431.5,4488780
1025,257.57,2733923
1026,344.64,3508335
1027,227.07,2457270
1028,394.65,4068305
1029,277.09,2826271
1030,298.11,3126799
1031,240.07,2489358
1032,332.15,3397433
1033,235.39,2484661
1034,262.14,2730402
1035,201.97,2101861
1036,252.97,2593850
1037,212.2,2217171
1038,227.32,2380811
1039,157.01,1622709
1040,309.82,3065805
1041,254.17,2575466
1042,296.49,2962980
1043,235.79,2537729
1044,376.91,3829064
1045,293.38,2962432
1046,298.89,2891961
1047,235.28,2397986
1048,274.47,2816361
1049,204.32,2151915
1050,271.84,2863026
1051,191.13,2114508
1052,244.37,2664607
1053,213.31,2272464
1054,217.97,2269465
1055,167.5,1800319
1056,410.77,3983762
1057,316.93,3282785
1058,371.22,3874132
1059,275.85,3001590
1060,385.64,3974369
1061,361.23,3594932
1062,321.32,3222857
1063,234.04,2443083
1064,303.52,3169255
1065,239.92,2562565
1066,310.38,3211570
1067,216.74,2260835
1068,319.79,3093755
1069,278.25,2848743
1070,248.52,2658893
1071,195.49,2081182
1072,268.11,2814093
1073,285.69,2946012
1074,277.91,2840783
1075,209.89,2269603
1076,341.99,3376354
1077,316.98,3279151
1078,281.67,2948200
1079,210.41,2300214
1080,241.81,2481560
1081,250.05,2699155
1082,264.25,2818847
1083,214.49,2348385
1084,226.28,2460754
1085,251.89,2527372
1086,217.08,2339005
1087,201.51,2176315
1088,435.85,4111154
1089,366.7,3605365
1090,382.75,3912643
1091,312.33,3171578
1092,442.02,4454535
1093,323.56,3374887
1094,336.1,3481201
1095,243.39,2532371
1096,309.57,3169700
1097,267.27,2802100
1098,315.9,3479834
1099,209.27,2134468
1100,318.19,3199675
1101,261.33,2683520
1102,285.85,2924340
1103,180.18,1920771
1104,325.07,3268838
1105,317.82,3158548
1106,411.59,4171977
1107,323.86,3353866
1108,415.89,4107365
1109,386.09,4043439
1110,316.14,3424188
1111,320.34,3282492
1112,269.23,2745244
1113,316.47,3087932
1114,352.12,3573606
1115,275.13,2809769
1116,331.18,3333689
1117,293.0,3103972
1118,278.14,2880582
1119,237.21,2514328
1120,301.74,3039386
1121,277.52,2826976
1122,322.0,3269721
1123,260.36,2811618
1124,399.36,3889547
1125,313.99,3254482
1126,303.94,3039700
1127,233.56,2443881
1128,308.65,3032937
1129,268.82,2817953
1130,269.53,2802707
1131,203.54,2189259
1132,264.52,2823725
1133,238.07,2400902
1134,234.56,2453302
1135,194.1,2020751
1136,261.05,2662488
1137,294.09,2911479
1138,297.27,3030515
1139,238.09,2458219
1140,297.24,3153716
1141,284.25,2997133
1142,280.76,2996889
1143,228.84,2477620
1144,241.52,2400420
1145,253.31,2716564
1146,265.57,2799713
1147,240.51,2573630
1148,260.16,2737392
1149,278.52,2849218
1150,232.31,2510498
1151,209.41,2258492
1152,313.01,3311701
1153,230.52,2333982
1154,295.42,3133974
1155,218.0,2185766
1156,319.4,3201075
1157,251.32,2558136
1158,312.66,3237271
1159,182.96,1930643
1160,283.54,2791622
1161,239.39,2374993
1162,249.82,2580808
1163,177.54,1844743
1164,258.34,2650374
1165,200.67,1985102
1166,231.38,2487802
1167,152.45,1627735
1168,290.68,2963071
1169,268.1,2653644
1170,269.38,2904135
1171,224.69,2337682
1172,287.46,2977386
1173,280.54,2964599
1174,272.14,2821710
1175,218.68,2302624
1176,273.51,2682583
1177,276.85,2647599
1178,291.38,2904615
1179,234.62,2357614
1180,263.62,2634429
1181,276.89,2879573
1182,208.77,2143678
1183,191.05,1988963
1184,334.15,3290506
1185,317.97,3099794
1186,321.27,3233036
1187,226.76,2499570
1188,383.19,3927844
1189,293.88,2896255
1190,303.18,3057230
1191,199.08,2074700
1192,274.94,2863786
1193,272.21,2780243
1194,301.14,3081273
1195,254.33,2615842
1196,280.81,2793028
1197,253.63,2479691
1198,250.69,2687785
1199,189.07,2032123
1200,236.07,2394568
1201,238.01,2465857
1202,260.73,2833926
1203,290.6,2865201
1204,262.9,2624297
1205,292.08,3039868
1206,267.64,2825582
1207,240.34,2560525
1208,226.02,2284659
1209,271.05,2734132
1210,293.98,2972254
1211,226.8,2244737
1212,244.97,2424206
1213,277.23,2730716
1214,258.57,2669263
1215,225.04,2447826
1216,264.16,2598698
1217,258.2,2521514
1218,285.7,2976853
1219,222.37,2324388
1220,280.36,2808000
1221,269.97,2746058
1222,271.32,2788177
1223,202.1,2196500
1224,280.47,2766188
1225,227.38,2305710
1226,278.47,2880186
1227,205.29,2143198
1228,256.17,2594675
1229,220.1,2285510
1230,227.87,2372051
1231,180.68,1906394
1232,279.49,2803917
1233,320.25,3177422
1234,298.63,3011796
1235,231.01,2463975
1236,292.55,2936252
1237,316.57,3236845
1238,265.87,2806484
1239,284.3,2978787
1240,229.65,2340788
1241,250.91,2558496
1242,275.51,2789630
1243,277.97,2794960
1244,260.34,2631863
1245,283.98,2915591
1246,261.57,2653868
1247,203.72,2148817
1248,249.68,2526637
1249,226.76,2357057
1250,309.63,3145720
1251,220.02,2394111
1252,263.62,2729592
1253,265.14,2719392
1254,252.91,2654224
1255,206.03,2242185
1256,253.85,2559595
1257,223.51,2284078
1258,254.89,2670285
1259,212.87,2192053
1260,242.31,2525551
1261,229.55,2420464
1262,224.55,2433343
1263,168.07,1887942
1264,231.03,2315178
1265,260.4,2519730
1266,243.0,2466565
1267,235.83,2512979
1268,272.42,2908715
1269,267.01,2817545
1270,238.98,2489652
1271,275.3,2867868
1272,228.59,2398200
1273,214.92,2270720
1274,241.53,2607950
1275,223.83,2350202
1276,202.68,2110403
1277,245.45,2598658
1278,246.33,2569757
1279,208.62,2305947
1280,252.54,2674210
1281,211.71,2208440
1282,250.39,2549082
1283,194.23,2083096
1284,264.08,2820925
1285,250.16,2628810
1286,249.49,2817167
1287,207.27,2220359
1288,213.76,2169783
1289,193.06,1965787
1290,252.93,2756095
1291,173.19,1836257
1292,227.94,2375380
1293,218.35,2265106
1294,232.7,2307388
1295,196.01,1972056
1296,234.38,2330507
1297,244.04,2537138
1298,250.62,2553519
1299,259.95,2787824
1300,283.4,2775586
1301,288.73,2924195
1302,285.23,2898729
1303,305.37,3141893
1304,255.48,2504435
1305,269.07,2666888
1306,240.86,2455039
1307,277.82,2780916
1308,260.19,2608175
1309,237.84,2452110
1310,256.06,2701959
1311,248.58,2635498
1312,260.82,2586571
1313,241.99,2476904
1314,280.52,2799444
1315,252.8,2762756
1316,315.1,3146138
1317,295.09,3088476
1318,296.55,3054885
1319,296.25,3121596
1320,237.92,2392518
1321,239.57,2460308
1322,304.95,2953088
1323,223.77,2348128
1324,260.48,2638544
1325,258.27,2686500
1326,295.26,3006083
1327,232.09,2507393
1328,289.31,2840207
1329,271.15,2812471
1330,307.0,3248056
1331,330.31,3361035
1332,325.46,3230771
1333,337.55,3480323
1334,321.83,3322416
1335,347.41,3741497
1336,258.49,2547129
1337,357.74,3527084
1338,325.88,3165522
1339,349.39,3737508
1340,264.59,2628827
1341,318.27,3554260
1342,333.84,3392682
1343,342.67,3406137
1344,294.23,2827810
1345,245.75,2445167
1346,336.98,3232122
1347,273.22,2789729
1348,303.89,3082557
1349,280.28,2859317
1350,300.58,2961749
1351,261.9,2699513
1352,271.4,2675566
1353,223.13,2368639
1354,309.36,2986413
1355,273.43,2873441
1356,288.32,2774365
1357,285.36,2995823
1358,300.79,2992596
1359,240.71,2507077
1360,275.33,2831347
1361,317.38,3242188
1362,344.74,3677125
1363,379.4,3842852
1364,361.33,3520736
1365,396.67,4210114
1366,369.94,3830755
1367,394.62,4055401
1368,298.48,2911425
1369,345.25,3289230
1370,358.84,3525639
1371,341.34,3515335
1372,343.62,3247931
1373,360.25,3571881
1374,338.4,3323583
1375,348.9,3538234
1376,265.55,2714865
1377,258.01,2651434
1378,278.79,2901758
1379,269.12,2858703
1380,334.35,3335954
1381,324.11,3272668
1382,322.28,3310515
1383,320.55,3286258
1384,274.64,2661573
1385,274.99,2704058
1386,295.43,3001323
1387,255.09,2490737
1388,246.6,2507275
1389,274.66,2805057
1390,268.23,2838667
1391,242.94,2638564
1392,259.47,2566885
1393,291.81,3053869
1394,310.9,3296435
1395,316.52,3272495
1396,333.23,3267241
1397,349.92,3515576
1398,399.46,4093105
1399,436.11,4407344
1400,241.98,2329920
1401,359.05,3662388
1402,300.48,2994800
1403,368.9,3706468
1404,282.23,2858698
1405,438.55,4317332
1406,336.67,3733275
1407,434.23,4308187
1408,218.01,2278057
1409,194.5,2017464
1410,274.41,2776094
1411,187.46,1998453
1412,244.01,2454844
1413,245.88,2518957
1414,238.59,2427337
1415,188.81,2001831
1416,225.57,2279412
1417,226.52,2226578
1418,256.47,2685975
1419,232.94,2430026
1420,203.69,2062006
1421,253.57,2554916
1422,212.99,2258467
1423,209.03,2184830
1424,210.81,2093314
1425,255.11,2562391
1426,277.43,2816863
1427,261.02,2771976
1428,330.8,3193244
1429,337.3,3374267
1430,346.6,3352140
1431,306.43,3101812
1432,236.06,2347078
1433,273.71,2658226
1434,356.63,3426970
1435,282.74,2811199
1436,330.56,3094195
1437,313.94,2995820
1438,332.94,3326131
1439,357.61,3624560
1440,235.97,2387996
1441,273.18,2664237
1442,279.17,2841772
1443,257.9,2599968
1444,261.01,2701439
1445,288.33,2904820
1446,296.2,3018284
1447,267.12,2930890
1448,253.09,2476351
1449,263.88,2748376
1450,285.11,2767872
1451,288.62,2983353
1452,264.92,2595557
1453,317.65,3332004
1454,299.16,2888641
1455,265.47,2758053
1456,221.12,2264545
1457,277.25,2775867
1458,335.35,3180260
1459,350.23,3627560
1460,297.69,2942542
1461,383.41,3785494
1462,339.33,3435910
1463,348.03,3816710
1464,239.39,2351323
1465,326.08,3158436
1466,305.64,3096432
1467,418.71,3998137
1468,273.2,2701270
1469,383.62,3747804
1470,325.56,3445129
1471,434.5,4657925
1472,215.87,2213876
1473,215.2,2138278
1474,266.01,2629028
1475,234.19,2374298
1476,257.92,2608165
1477,260.09,2789844
1478,279.12,2861485
1479,247.47,2610046
1480,219.54,2252689
1481,234.18,2427688
1482,270.66,2791213
1483,221.06,2302142
1484,244.45,2392179
1485,210.05,2205400
1486,239.65,2572286
1487,235.95,2534064
1488,218.1,2145341
1489,313.33,3202891
1490,333.89,3356516
1491,348.63,3563209
1492,322.76,3232998
1493,422.77,4323455
1494,377.21,4126720
1495,387.63,3925115
1496,261.18,2586176
1497,296.51,3040203
1498,304.68,3012135
1499,440.64,4288704
1500,342.31,3116901
1501,416.48,3967153
1502,351.79,3728896
1503,385.04,3994866
1504,198.06,2048476
1505,241.95,2473049
1506,252.6,2720584
1507,257.7,2652692
1508,243.94,2491215
1509,325.46,3316004
1510,293.9,3045183
1511,296.68,3236841
1512,204.85,2125842
1513,253.95,2574187
1514,282.97,2839200
1515,304.84,3263994
1516,241.9,2499783
1517,308.89,3042246
1518,279.98,2975940
1519,292.03,3130699
1520,190.87,2040602
1521,324.61,3168067
1522,335.08,3356257
1523,361.89,3777783
1524,313.17,3231849
1525,398.63,3866382
1526,377.72,3875161
1527,422.97,4247352
1528,232.42,2363295
1529,359.97,3509913
1530,353.65,3672055
1531,522.14,5049301
1532,267.49,2852224
1533,429.25,4631295
1534,399.03,4171413
1535,446.27,4596460
1536,281.92,2900433
1537,230.57,2374034
1538,275.27,2759794
1539,178.16,1893340
1540,310.78,3192763
1541,245.38,2484215
1542,295.46,3104371
1543,182.29,1993659
1544,263.05,2775124
1545,202.03,2112132
1546,229.8,2465427
1547,185.39,1982306
1548,246.29,2579179
1549,180.83,1875262
1550,203.21,2191906
1551,152.8,1603429
1552,253.0,2544456
1553,239.29,2495280
1554,284.7,2901951
1555,227.47,2365389
1556,295.24,2973385
1557,262.96,2685962
1558,276.47,2913066
1559,252.55,2698293
1560,203.34,2072438
1561,209.92,2321795
1562,269.98,2858290
1563,255.29,2626865
1564,296.27,2959447
1565,224.94,2359802
1566,250.73,2608170
1567,177.59,1817093
1568,268.1,2755132
1569,260.79,2656547
1570,333.07,3266405
1571,220.93,2396117
1572,339.02,3548452
1573,279.4,2913217
1574,262.22,2845526
1575,234.18,2425627
1576,268.11,2667061
1577,256.47,2675595
1578,255.34,2667334
1579,240.55,2443816
1580,257.55,2729031
1581,243.63,2524056
1582,288.2,2996182
1583,219.45,2257445
1584,267.34,2726782
1585,301.34,3147836
1586,260.92,2696585
1587,234.77,2625259
1588,294.07,2976377
1589,315.23,3167943
1590,264.63,2713502
1591,276.03,2818117
1592,245.65,2513498
1593,268.44,2641963
1594,262.47,2705400
1595,255.5,2678359
1596,256.8,2658241
1597,244.52,2651395
1598,271.82,2792933
1599,258.57,2621952
1600,278.14,2790272
1601,245.81,2487187
1602,315.2,3361574
1603,219.47,2268742
1604,348.87,3473724
1605,282.21,2948571
1606,322.17,3250442
1607,224.74,2362841
1608,259.23,2651588
1609,230.14,2395914
1610,242.42,2554807
1611,205.59,2180845
1612,230.18,2399669
1613,260.85,2672782
1614,256.7,2688661
1615,196.14,2109937
1616,311.19,3107401
1617,271.33,2866759
1618,354.29,3492874
1619,277.29,2829931
1620,362.5,3632571
1621,367.51,3936673
1622,320.7,3266679
1623,292.59,3089952
1624,290.66,2844869
1625,267.33,2837284
1626,364.66,3687487
1627,295.79,2955277
1628,329.53,3203907
1629,305.58,3106054
1630,325.53,3222418
1631,269.3,2974350
1632,219.21,2228976
1633,253.18,2574078
1634,323.39,3241417
1635,237.42,2474609
1636,311.76,3138457
1637,279.63,2927046
1638,276.82,2976759
1639,265.2,2903290
1640,237.98,2511929
1641,221.75,2381951
1642,263.34,2793604
1643,234.88,2541695
1644,257.34,2665063
1645,237.91,2595840
1646,243.91,2715182
1647,239.14,2494552
1648,200.74,2139099
1649,263.45,2750678
1650,334.49,3473811
1651,297.0,3030807
1652,258.28,2665111
1653,295.19,3021863
1654,309.02,3193991
1655,290.39,3052374
1656,215.63,2246719
1657,272.63,2649139
1658,354.7,3675492
1659,317.43,3196767
1660,223.11,2296678
1661,267.23,2829739
1662,279.56,2882152
1663,281.18,2931213
1664,281.09,2843520
1665,201.12,2053690
1666,251.61,2509341
1667,184.77,1934507
1668,260.18,2648375
1669,223.03,2249437
1670,257.44,2661975
1671,164.74,1827848
1672,252.56,2649878
1673,177.39,1870205
1674,216.73,2332965
1675,182.98,1959068
1676,203.73,2090018
1677,215.13,2201476
1678,228.26,2342275
1679,150.88,1620105
1680,224.4,2216975
1681,229.29,2260331
1682,248.98,2553368
1683,222.33,2412051
1684,290.6,2899369
1685,293.64,2958305
1686,318.1,3340136
1687,259.4,2684179
1688,230.19,2286699
1689,262.96,2651183
1690,240.07,2529555
1691,244.14,2486366
1692,219.64,2219173
1693,243.24,2498342
1694,255.88,2738907
1695,218.18,2223001
1696,271.0,2755912
1697,224.74,2356173
1698,264.24,2715315
1699,250.2,2568818
1700,271.56,2818234
1701,251.42,2599657
1702,273.82,2857137
1703,229.74,2422489
1704,234.05,2317035
1705,251.43,2571003
1706,278.35,2975426
1707,219.76,2187577
1708,212.29,2253902
1709,274.43,2807033
1710,232.31,2495811
1711,194.23,2073581
1712,243.03,2459428
1713,251.22,2539266
1714,288.18,2857827
1715,265.99,2731946
1716,257.5,2765802
1717,310.1,3113894
1718,284.82,2866219
1719,329.84,3231847
1720,232.95,2331075
1721,299.06,2883423
1722,321.07,3174884
1723,308.98,3199899
1724,243.74,2474295
1725,284.03,2870739
1726,286.38,3065829
1727,312.02,3219837
1728,226.43,2228446
1729,217.53,2209214
1730,267.76,2763524
1731,213.69,2144245
1732,247.0,2486607
1733,248.63,2517633
1734,212.81,2309013
1735,212.58,2288182
1736,190.83,2024011
1737,254.06,2568937
1738,235.98,2414632
1739,180.4,1859467
1740,205.93,2105187
1741,218.79,2278952
1742,197.16,2138040
1743,175.22,1939064
1744,265.6,2589042
1745,295.32,2909046
1746,307.09,3017668
1747,301.22,2984571
1748,276.21,2762154
1749,341.83,3293031
1750,307.7,3187728
1751,337.34,3412725
1752,228.25,2328818
1753,319.6,3095368
1754,346.46,3281913
1755,312.35,3084351
1756,242.91,2626258
1757,280.2,2974944
1758,252.95,2598034
1759,312.52,3238038
1760,237.12,2349048
1761,246.09,2459742
1762,263.67,2754477
1763,229.71,2425635
1764,262.67,2760586
1765,291.08,3064192
1766,219.07,2355694
1767,253.77,2625789
1768,209.34,2155734
1769,222.0,2279668
1770,228.44,2520202
1771,242.99,2562324
1772,229.09,2338018
1773,210.18,2303996
1774,259.74,2714326
1775,265.09,2882284
1776,196.43,2036623
1777,260.33,2736245
1778,305.24,3254293
1779,269.0,2811367
1780,250.53,2611053
1781,296.02,3164760
1782,352.44,3580945
1783,369.79,3880290
1784,205.3,2262449
1785,295.03,2872139
1786,316.42,3115377
1787,340.55,3437049
1788,232.89,2512264
1789,337.34,3600631
1790,282.08,3151423
1791,330.71,3586153
1792,168.83,1836608
1793,139.71,1562392
1794,216.88,2461538
1795,160.39,1800703
1796,163.24,1747688
1797,171.7,1864581
1798,166.79,1877957
1799,157.3,1749562
1800,149.54,1585832
1801,157.21,1725445
1802,184.2,2039718
1803,161.48,1712849
1804,175.82,1862682
1805,166.33,1815901
1806,193.96,1992439
1807,167.13,1793128
1808,202.9,2189498
1809,211.13,2296788
1810,217.78,2369532
1811,211.22,2351380
1812,217.35,2342935
1813,245.19,2542737
1814,251.57,2743850
1815,317.92,3295856
1816,164.61,1762314
1817,227.1,2329928
1818,249.75,2582895
1819,256.59,2635730
1820,214.4,2242185
1821,263.6,2857490
1822,240.29,2456962
1823,277.36,2929823
1824,193.36,2019371
1825,212.99,2261071
1826,231.22,2413668
1827,264.22,2824773
1828,218.85,2315970
1829,269.5,2768636
1830,258.02,2681048
1831,258.48,2683577
1832,173.51,1819067
1833,197.32,2121820
1834,229.36,2463011
1835,246.23,2636478
1836,211.68,2242124
1837,234.98,2434209
1838,262.87,2759086
1839,289.18,3081725
1840,186.35,2025649
1841,244.35,2656141
1842,270.95,2816362
1843,343.15,3559318
1844,250.4,2648969
1845,314.64,3314630
1846,299.92,3192001
1847,432.51,4427510
1848,222.67,2289680
1849,300.65,3064517
1850,308.41,3105840
1851,322.26,3403300
1852,268.05,2785925
1853,369.7,3671290
1854,310.03,3163664
1855,380.65,3917118
1856,214.42,2211146
1857,194.18,2057898
1858,242.77,2544565
1859,194.1,2105222
1860,203.64,2254304
1861,246.59,2542608
1862,206.17,2231013
1863,217.33,2329832
1864,175.0,1877433
1865,207.16,2177581
1866,227.21,2378357
1867,213.35,2246342
1868,180.25,1956868
1869,216.35,2230544
1870,217.1,2310151
1871,189.33,2096751
1872,214.22,2247486
1873,282.1,2865102
1874,310.56,3297430
1875,299.94,3063714
1876,248.85,2541022
1877,370.62,3801775
1878,271.41,2881690
1879,410.34,3952918
1880,237.42,2359833
1881,247.11,2489196
1882,318.18,3341215
1883,356.02,3522616
1884,329.01,3279933
1885,347.43,3388168
1886,314.39,3331611
1887,405.97,4200780
1888,195.04,2078303
1889,189.36,2063975
1890,239.15,2421729
1891,239.47,2569113
1892,218.83,2312867
1893,291.69,3191550
1894,277.76,3072424
1895,297.34,3374160
1896,184.26,1949805
1897,210.36,2180366
1898,270.45,2649562
1899,289.0,2998924
1900,240.35,2495750
1901,304.59,3173912
1902,251.79,2842648
1903,311.52,3480237
1904,210.95,2248131
1905,313.19,3259832
1906,298.61,3179340
1907,360.53,4073819
1908,269.49,2895474
1909,424.99,4403062
1910,338.11,3696405
1911,484.18,5229116
1912,213.31,2228524
1913,313.65,3255341
1914,350.47,3523576
1915,436.18,4447299
1916,292.22,2921572
1917,410.11,4448405
1918,370.43,3834166
1919,514.63,5283164
1920,136.82,1472452
1921,147.69,1568175
1922,180.49,1961164
1923,180.44,1936474
1924,163.57,1765699
1925,189.56,2069811
1926,188.01,2060524
1927,199.35,2089427
1928,152.85,1590705
1929,162.7,1701500
1930,179.28,1934631
1931,177.36,1891808
1932,169.23,1907868
1933,188.68,1898938
1934,196.56,2049375
1935,185.17,1958096
1936,187.79,1873370
1937,227.05,2525705
1938,274.68,2859347
1939,264.01,2681854
1940,231.9,2444247
1941,284.28,3027057
1942,262.75,2802017
1943,316.31,3247233
1944,207.41,2075073
1945,302.66,2939113
1946,265.46,2729096
1947,335.98,3265326
1948,249.7,2682414
1949,329.2,3261586
1950,267.52,2699711
1951,316.9,3439346
1952,184.23,1879584
1953,225.44,2446700
1954,197.51,2092689
1955,297.11,2977581
1956,213.31,2195965
1957,217.29,2398390
1958,227.48,2491322
1959,270.1,2746858
1960,182.48,1856311
1961,248.02,2494192
1962,278.28,2853231
1963,292.08,3050764
1964,233.72,2345301
1965,261.26,2717446
1966,285.92,3110138
1967,293.57,3158459
1968,188.5,1904677
1969,288.79,2870426
1970,252.4,2745935
1971,363.64,3741917
1972,251.18,2563654
1973,399.04,3958026
1974,316.97,3270727
1975,515.62,5077796
1976,234.25,2443935
1977,302.57,3118257
1978,355.35,3571455
1979,476.56,4717023
1980,276.43,2797448
1981,443.84,4646476
1982,357.61,3736519
1983,502.93,4959974
1984,145.85,1521128
1985,179.65,1895563
1986,235.27,2387190
1987,186.56,2029496
1988,212.33,2214337
1989,219.93,2314023
1990,187.81,2017447
1991,243.75,2611690
1992,150.61,1572138
1993,188.13,1897550
1994,205.62,2181679
1995,200.56,2133404
1996,183.42,1941786
1997,224.21,2353514
1998,215.96,2344695
1999,212.5,2316441
2000,189.75,2015362
2001,280.95,3134878
2002,285.65,2854496
2003,360.25,3891703
2004,261.23,2689469
2005,368.25,3638454
2006,291.97,2967543
2007,413.29,4141927
2008,268.12,2649485
2009,354.58,3559737
2010,339.89,3505730
2011,438.84,4358334
2012,299.65,3128444
2013,360.58,3554559
2014,331.57,3497218
2015,456.91,4441951
2016,159.12,1701690
2017,212.1,2198382
2018,233.37,2403166
2019,284.91,2957505
2020,201.08,2263018
2021,253.87,2697757
2022,279.51,2942206
2023,303.54,3225519
2024,196.27,2004509
2025,224.92,2266534
2026,244.23,2574062
2027,327.46,3328864
2028,204.46,2126085
2029,292.69,3060411
2030,257.46,2798662
2031,311.92,3437698
2032,198.43,2153074
2033,302.23,3171843
2034,299.67,3161797
2035,403.31,3967941
2036,234.91,2534504
2037,425.01,4238527
2038,410.74,4252154
2039,523.17,5649270
2040,196.48,2183117
2041,388.97,4184532
2042,357.93,3618009
2043,510.46,5343551
2044,274.96,2948841
2045,468.48,5100671
2046,431.51,4602119
2047,630.66,6340612
2048,366.24,3731219
2049,267.26,2802331
2050,346.21,3510247
2051,206.04,2183114
2052,395.89,4059152
2053,252.84,2669510
2054,256.0,2632842
2055,157.72,1672474
2056,365.96,3709389
2057,266.4,2617557
2058,319.73,3289312
2059,159.5,1733268
2060,278.12,2895361
2061,180.52,1895035
2062,213.04,2190425
2063,140.98,1482291
2064,262.26,2596714
2065,231.01,2316778
2066,236.93,2546194
2067,174.32,1886116
2068,338.1,3416123
2069,247.85,2511245
2070,284.8,2975533
2071,196.04,2077031
2072,270.02,2852348
2073,196.58,2044976
2074,237.92,2494968
2075,177.36,1885280
2076,216.48,2297529
2077,188.34,1982171
2078,182.2,1973435
2079,156.48,1675550
2080,316.82,3311674
2081,228.3,2494714
2082,291.0,3099277
2083,209.76,2214578
2084,361.33,3742476
2085,238.97,2430994
2086,270.03,2811361
2087,196.0,2088952
2088,333.07,3263003
2089,245.6,2482779
2090,306.44,2972018
2091,237.88,2540826
2092,245.8,2494166
2093,217.61,2325615
2094,222.79,2328936
2095,154.28,1676819
2096,205.76,2213915
2097,204.12,2062497
2098,241.84,2541368
2099,192.9,2014053
2100,251.47,2537396
2101,228.91,2415482
2102,194.86,2049434
2103,206.59,2297017
2104,200.51,2066632
2105,207.65,2192144
2106,222.23,2235062
2107,209.6,2173905
2108,198.58,2106238
2109,183.31,1942763
2110,217.49,2264373
2111,181.11,1856398
2112,366.79,3735090
2113,281.0,2840727
2114,320.94,3249471
2115,213.54,2221634
2116,366.59,3797281
2117,283.54,2912411
2118,304.48,3212083
2119,216.25,2260888
2120,329.34,3382975
2121,241.17,2490979
2122,285.66,2771924
2123,186.87,1992614
2124,268.06,2769297
2125,209.93,2292211
2126,255.88,2582077
2127,172.6,1756628
2128,289.52,2963234
2129,234.37,2486137
2130,269.74,2806543
2131,246.55,2518638
2132,349.13,3413388
2133,255.91,2742020
2134,264.05,2632726
2135,225.44,2450152
2136,305.5,3091283
2137,252.25,2576987
2138,299.57,2962741
2139,221.16,2171955
2140,306.02,2885474
2141,241.17,2501689
2142,223.01,2272650
2143,169.14,1840442
2144,270.66,2802866
2145,227.21,2389519
2146,264.31,2842988
2147,229.91,2383384
2148,313.14,3014916
2149,248.65,2544090
2150,256.62,2590481
2151,218.04,2213608
2152,296.66,3021352
2153,224.62,2352200
2154,228.58,2427977
2155,217.58,2200580
2156,253.1,2531017
2157,189.7,2010371
2158,188.66,2020609
2159,172.32,1900132
2160,205.33,2074679
2161,198.83,2100715
2162,238.63,2528535
2163,192.14,2079160
2164,220.59,2327642
2165,208.93,2237757
2166,233.94,2391953
2167,186.1,2039294
2168,194.13,2049549
2169,202.06,2096249
2170,256.95,2548830
2171,195.9,2175146
2172,239.27,2471980
2173,195.15,2110763
2174,189.72,1993303
2175,208.58,2169236
2176,370.42,3704783
2177,237.98,2642949
2178,301.45,3081399
2179,185.97,1941224
2180,353.38,3831928
2181,240.34,2348787
2182,255.7,2646774
2183,170.01,1787107
2184,318.71,3364945
2185,251.86,2525654
2186,290.71,2881602
2187,189.93,1933694
2188,308.47,3154698
2189,223.08,2281131
2190,201.84,2221118
2191,148.16,1612468
2192,239.45,2496537
2193,200.29,2019327
2194,244.49,2487671
2195,187.94,2001783
2196,274.04,2907323
2197,257.41,2638365
2198,221.15,2281747
2199,170.63,1925306
2200,296.77,2880633
2201,236.54,2326444
2202,274.0,2837239
2203,214.92,2131068
2204,241.2,2389875
2205,199.11,2098234
2206,218.74,2233062
2207,159.39,1754117
2208,308.55,3259260
2209,256.17,2555860
2210,254.89,2705794
2211,236.48,2314653
2212,331.66,3395056
2213,234.53,2482390
2214,283.13,2892371
2215,184.72,1969714
2216,305.32,3105195
2217,255.24,2475227
2218,299.72,2878215
2219,258.23,2775277
2220,284.63,2794075
2221,225.59,2315538
2222,220.35,2323945
2223,180.57,1914526
2224,186.03,1956860
2225,185.27,1901569
2226,203.72,2185627
2227,203.54,2152524
2228,227.5,2350865
2229,217.97,2270579
2230,228.46,2306785
2231,201.28,2227740
2232,221.44,2245233
2233,239.15,2350891
2234,239.56,2438339
2235,240.76,2520706
2236,212.37,2159217
2237,238.64,2370444
2238,229.08,2394700
2239,242.38,2480871
2240,268.04,2822499
2241,200.2,2078830
2242,242.7,2530786
2243,177.82,1843822
2244,272.17,2776222
2245,236.74,2289023
2246,248.41,2529104
2247,163.55,1762516
2248,215.37,2275491
2249,214.28,2180982
2250,224.57,2310865
2251,197.21,1974031
2252,254.51,2574535
2253,207.61,2113332
2254,242.59,2489384
2255,134.19,1432179
2256,221.47,2270344
2257,229.41,2314054
2258,226.27,2239827
2259,200.83,2120129
2260,244.51,2422367
2261,216.66,2273242
2262,223.57,2263831
2263,200.5,2109480
2264,215.78,2247806
2265,213.1,2186030
2266,243.9,2413973
2267,185.92,1987300
2268,231.87,2224983
2269,226.19,2305956
2270,227.6,2260872
2271,186.55,1999194
2272,219.47,2254194
2273,194.15,1969324
2274,231.45,2341001
2275,189.49,1980233
2276,217.71,2234276
2277,244.37,2664948
2278,235.89,2467362
2279,172.12,1872700
2280,226.08,2303491
2281,211.29,2165525
2282,231.54,2400598
2283,181.01,1943108
2284,216.84,2162464
2285,171.7,1782709
2286,198.45,2119620
2287,168.41,1886808
2288,173.38,1846416
2289,169.54,1831796
2290,213.01,2184002
2291,213.45,2248425
2292,212.41,2235052
2293,223.52,2321945
2294,187.71,2029933
2295,208.77,2338733
2296,185.24,1932070
2297,215.65,2280100
2298,239.57,2418067
2299,210.27,2315379
2300,213.01,2272324
2301,191.44,2089594
2302,200.43,2193844
2303,239.28,2369325
2304,237.82,2436801
2305,181.63,1912083
2306,250.49,2662035
2307,173.64,1849593
2308,231.54,2451077
2309,216.84,2338456
2310,237.29,2448715
2311,172.08,1803403
2312,204.17,2134667
2313,190.61,1965984
2314,249.12,2548223
2315,162.6,1721070
2316,225.99,2256512
2317,164.09,1705237
2318,201.67,2127092
2319,148.4,1587004
2320,175.25,1901197
2321,162.35,1694464
2322,261.86,2615052
2323,200.99,2122909
2324,244.97,2494227
2325,242.11,2433586
2326,238.11,2378273
2327,213.47,2284266
2328,221.78,2200778
2329,205.77,2121310
2330,238.16,2412893
2331,228.7,2325839
2332,200.26,1990585
2333,252.81,2500547
2334,217.06,2267417
2335,187.33,1979372
2336,195.36,2087872
2337,210.81,2121349
2338,262.46,2649677
2339,210.27,2124904
2340,256.17,2892968
2341,221.72,2396181
2342,249.71,2734218
2343,211.19,2164284
2344,258.13,2578058
2345,213.14,2210931
2346,272.22,2724346
2347,217.59,2352279
2348,226.83,2326565
2349,254.84,2458088
2350,251.52,2516467
2351,192.87,2039719
2352,207.87,2080846
2353,242.07,2415650
2354,226.89,2375328
2355,255.65,2632823
2356,245.91,2494519
2357,284.16,2922121
2358,289.24,2933597
2359,253.37,2794966
2360,238.51,2288282
2361,273.7,2725635
2362,288.94,2754218
2363,303.17,3139724
2364,220.56,2329245
2365,277.77,2796647
2366,288.97,2987731
2367,303.0,3156405
2368,229.13,2434360
2369,244.5,2407569
2370,255.49,2762385
2371,219.41,2336481
2372,286.52,3040109
2373,267.44,2792082
2374,247.39,2570519
2375,206.73,2158465
2376,246.04,2501376
2377,225.95,2299259
2378,248.12,2548828
2379,196.76,2112385
2380,242.39,2454179
2381,247.03,2488087
2382,206.93,2138820
2383,196.7,2038734
2384,262.59,2506463
2385,260.64,2567437
2386,352.24,3431141
2387,255.03,2903543
2388,315.53,3084169
2389,283.45,2847376
2390,308.4,3202879
2391,320.39,3302552
2392,236.84,2304025
2393,258.65,2658323
2394,321.06,3098174
2395,273.02,2932340
2396,298.79,2938977
2397,340.87,3287103
2398,255.28,2784170
2399,315.55,3103332
2400,247.58,2531009
2401,216.05,2283198
2402,266.54,2791438
2403,216.29,2361192
2404,254.52,2568550
2405,272.29,2758050
2406,256.82,2597808
2407,216.84,2323856
2408,275.13,2684472
2409,255.39,2679122
2410,259.87,2600041
2411,285.9,2990589
2412,269.97,2711105
2413,250.59,2518717
2414,248.8,2616637
2415,252.41,2607111
2416,186.09,1927273
2417,241.23,2628788
2418,254.57,2707781
2419,299.14,3086382
2420,258.43,2606837
2421,309.16,3129682
2422,316.44,3280030
2423,326.89,3212632
2424,199.05,2056206
2425,273.15,2703555
2426,307.69,3227764
2427,367.44,3595595
2428,260.77,2683617
2429,315.07,3431812
2430,315.2,3157212
2431,447.74,4436246
2432,205.61,2090847
2433,189.2,1917300
2434,222.38,2298099
2435,180.9,1814723
2436,223.42,2335146
2437,203.91,2103531
2438,213.01,2208845
2439,160.69,1692698
2440,209.27,2203727
2441,170.6,1782630
2442,263.13,2696439
2443,194.8,1952224
2444,221.69,2206438
2445,200.21,1995673
2446,204.65,2198581
2447,174.56,1829172
2448,203.76,2033518
2449,198.53,2079731
2450,254.38,2580815
2451,237.24,2421879
2452,231.35,2443202
2453,239.41,2380596
2454,232.46,2327210
2455,278.18,2824313
2456,230.35,2363625
2457,259.78,2506564
2458,277.62,2699486
2459,316.97,3219645
2460,263.25,2604177
2461,284.53,2889983
2462,276.6,2927356
2463,302.67,3042118
2464,243.76,2507266
2465,230.44,2267027
2466,254.71,2557571
2467,253.89,2515146
2468,310.49,3105615
2469,220.06,2409734
2470,226.18,2280551
2471,234.97,2316039
2472,270.04,2799707
2473,253.94,2477280
2474,279.09,2700112
2475,277.06,2759227
2476,245.18,2564053
2477,266.17,2630601
2478,324.03,3211962
2479,248.7,2529491
2480,216.49,2158963
2481,266.07,2620689
2482,300.15,2999390
2483,320.95,3190468
2484,250.71,2435030
2485,287.21,2870637
2486,265.01,2830552
2487,373.49,3775353
2488,288.3,2790940
2489,360.33,3481204
2490,319.46,3240915
2491,461.62,4474682
2492,284.69,2886700
2493,310.86,3305702
2494,340.29,3475149
2495,399.37,4178885
2496,205.75,2037886
2497,209.04,2035282
2498,247.38,2555179
2499,203.65,2187107
2500,201.22,2116706
2501,235.63,2319870
2502,252.46,2586129
2503,212.78,2229175
2504,198.99,2039965
2505,208.19,1991214
2506,262.2,2593421
2507,213.33,2151114
2508,223.26,2248148
2509,210.91,2193098
2510,221.27,2335029
2511,232.5,2388331
2512,232.77,2309236
2513,249.77,2512937
2514,250.45,2546778
2515,316.23,3339505
2516,295.52,2905298
2517,271.78,2838142
2518,267.11,2608159
2519,316.53,3219095
2520,222.33,2263354
2521,321.67,2996503
2522,321.95,3122808
2523,402.72,3846749
2524,273.82,2762463
2525,294.98,2919311
2526,372.89,3598041
2527,408.5,4101014
2528,210.37,2099276
2529,237.51,2394397
2530,218.49,2292204
2531,253.33,2611264
2532,218.45,2309798
2533,233.36,2403630
2534,256.76,2730547
2535,271.67,2764265
2536,203.36,2065928
2537,251.27,2476395
2538,270.3,2819334
2539,301.97,2992679
2540,218.39,2336138
2541,280.33,2841101
2542,233.57,2499722
2543,276.17,3019447
2544,185.16,1969715
2545,269.93,2778452
2546,281.6,2941500
2547,398.57,3908774
2548,247.59,2521254
2549,293.71,3292648
2550,298.59,3017490
2551,359.32,3772585
2552,228.43,2317539
2553,338.97,3462340
2554,329.88,3228555
2555,422.58,4381562
2556,282.93,2812180
2557,391.82,4163321
2558,356.4,3608185
2559,442.21,4613234
2560,277.64,2836538
2561,235.24,2544474
2562,256.37,2650567
2563,174.93,1859831
2564,277.5,2798043
2565,215.31,2211938
2566,270.01,2722830
2567,175.8,1850049
2568,232.77,2365725
2569,213.08,2152838
2570,248.63,2620911
2571,148.21,1574319
2572,243.27,2555534
2573,191.9,1971170
2574,207.14,2161714
2575,164.43,1813133
2576,222.47,2301708
2577,240.49,2381852
2578,260.68,2616304
2579,247.88,2595354
2580,259.84,2576342
2581,247.82,2601375
2582,257.5,2627541
2583,213.72,2149365
2584,202.72,2160757
2585,244.8,2489661
2586,256.37,2635075
2587,214.99,2187991
2588,226.12,2289368
2589,221.73,2183225
2590,231.95,2479455
2591,186.13,1967897
2592,245.21,2471542
2593,255.91,2593091
2594,267.7,2738355
2595,217.31,2272021
2596,302.47,2999746
2597,230.88,2424877
2598,255.4,2671110
2599,230.74,2398708
2600,274.93,2765483
2601,268.4,2615836
2602,281.82,2872935
2603,245.25,2450126
2604,272.51,2739460
2605,241.58,2575041
2606,245.7,2495296
2607,213.07,2167345
2608,216.98,2232686
2609,233.36,2374657
2610,233.94,2378514
2611,229.45,2442728
2612,261.62,2586971
2613,258.97,2595967
2614,241.19,2457068
2615,279.64,2944310
2616,248.81,2396108
2617,267.87,2650091
2618,302.9,2873366
2619,244.6,2606225
2620,247.66,2489179
2621,253.11,2668091
2622,308.5,2992639
2623,277.8,2803287
2624,303.41,2968024
2625,222.56,2337882
2626,282.65,2820548
2627,226.14,2238105
2628,283.03,2876146
2629,260.18,2562482
2630,323.98,3309151
2631,221.46,2344186
2632,249.54,2594290
2633,231.55,2389896
2634,258.8,2657370
2635,209.92,2227269
2636,249.96,2550721
2637,252.18,2432288
2638,272.61,2792975
2639,183.4,1913160
2640,267.34,2584321
2641,279.29,2808000
2642,332.95,3287597
2643,272.56,2743451
2644,288.48,3029080
2645,327.53,3346112
2646,332.66,3302353
2647,293.42,2985855
2648,302.39,2866507
2649,326.76,3122943
2650,303.75,2977995
2651,306.25,3012642
2652,277.64,2754164
2653,277.39,2817174
2654,316.85,3196111
2655,249.45,2541254
2656,254.69,2629918
2657,257.94,2520187
2658,293.56,3013058
2659,257.55,2650921
2660,307.27,3011924
2661,261.78,2737134
2662,227.88,2362760
2663,251.08,2482756
2664,249.18,2542238
2665,251.43,2461330
2666,299.55,3029611
2667,251.76,2470213
2668,267.41,2638510
2669,249.3,2572632
2670,246.63,2500101
2671,223.61,2393452
2672,203.95,2098952
2673,241.62,2535882
2674,242.39,2561442
2675,258.72,2762517
2676,266.57,2671895
2677,290.14,2966561
2678,276.65,2900445
2679,272.03,2951669
2680,224.68,2319761
2681,265.62,2689232
2682,324.57,3174511
2683,276.04,2904047
2684,240.41,2540087
2685,307.72,3185529
2686,279.81,2919003
2687,318.18,3152886
2688,231.49,2344888
2689,193.39,2025943
2690,264.63,2683941
2691,233.87,2336444
2692,237.33,2512417
2693,223.07,2270080
2694,227.38,2280820
2695,193.15,1954239
2696,251.85,2536501
2697,237.31,2385275
2698,264.84,2692745
2699,204.86,2077608
2700,241.95,2479353
2701,194.7,1989929
2702,281.51,2978499
2703,171.13,1822433
2704,205.52,2089804
2705,228.0,2210170
2706,264.95,2643734
2707,231.38,2322833
2708,284.96,2771345
2709,301.16,3003702
2710,257.18,2599761
2711,262.9,2606836
2712,295.67,3062239
2713,273.51,2795324
2714,276.6,2644419
2715,273.33,2737888
2716,276.95,2743129
2717,260.5,2588350
2718,296.16,2921095
2719,254.32,2428965
2720,263.73,2622574
2721,230.79,2284352
2722,255.43,2615453
2723,224.4,2278295
2724,282.11,2895992
2725,247.15,2530965
2726,245.04,2590078
2727,231.96,2418249
2728,256.32,2568539
2729,282.38,2846958
2730,253.52,2694180
2731,284.8,2844563
2732,256.87,2579245
2733,253.49,2491200
2734,292.66,2893444
2735,245.68,2613828
2736,188.31,1952560
2737,226.67,2440019
2738,260.74,2646344
2739,270.75,2766309
2740,310.1,2991266
2741,286.45,2857803
2742,301.36,3111384
2743,300.09,3236337
2744,238.69,2388900
2745,287.24,2812653
2746,299.85,3076204
2747,380.61,3581216
2748,264.07,2714045
2749,378.96,3507565
2750,318.79,3048760
2751,352.07,3417863
2752,219.34,2231477
2753,188.93,1966459
2754,227.53,2257911
2755,189.12,1955828
2756,234.0,2437923
2757,229.25,2415908
2758,252.79,2582301
2759,178.16,1892528
2760,244.87,2473130
2761,214.05,2191888
2762,275.9,2933202
2763,220.82,2237783
2764,245.59,2576888
2765,223.18,2234673
2766,226.07,2374087
2767,212.88,2154684
2768,244.15,2416315
2769,236.66,2337226
2770,239.64,2607574
2771,263.64,2716293
2772,295.65,2848918
2773,321.3,3163241
2774,253.92,2504147
2775,250.23,2687993
2776,270.18,2652120
2777,271.37,2743946
2778,259.69,2731365
2779,356.34,3584096
2780,296.56,2808139
2781,286.13,2823311
2782,287.66,3228762
2783,291.76,3026349
2784,219.12,2191358
2785,218.55,2183855
2786,259.22,2544708
2787,232.18,2425843
2788,215.16,2231234
2789,244.35,2514477
2790,240.31,2456138
2791,245.27,2576707
2792,222.84,2223356
2793,245.72,2441351
2794,242.4,2499063
2795,247.13,2608849
2796,188.66,2028947
2797,270.0,2702092
2798,218.98,2386672
2799,232.28,2481874
2800,191.12,1911750
2801,277.02,2724011
2802,253.17,2469650
2803,303.66,3046405
2804,238.36,2398982
2805,295.26,3060926
2806,269.44,2819338
2807,353.88,3692874
2808,244.17,2382952
2809,318.54,3282876
2810,334.67,3325351
2811,368.18,3909510
2812,233.04,2444636
2813,340.92,3463940
2814,322.03,3513328
2815,442.79,4327149
2816,131.63,1421394
2817,136.13,1463221
2818,182.12,1869390
2819,131.69,1433230
2820,169.11,1798462
2821,131.71,1415161
2822,179.03,1875699
2823,137.11,1463657
2824,142.97,1548554
2825,153.66,1612241
2826,166.18,1727139
2827,131.0,1407823
2828,160.06,1664515
2829,165.21,1798267
2830,188.19,1983098
2831,151.4,1668887
2832,177.29,1911789
2833,196.9,1980525
2834,229.91,2319700
2835,208.59,2209059
2836,203.42,2117934
2837,232.83,2338555
2838,240.47,2452752
2839,281.07,2874434
2840,180.44,1836681
2841,200.67,2054337
2842,221.8,2262178
2843,272.17,2665809
2844,231.51,2314458
2845,244.83,2552840
2846,233.08,2411988
2847,289.43,2892465
2848,168.65,1811996
2849,204.28,2052612
2850,202.57,2024155
2851,215.69,2294072
2852,210.45,2152365
2853,214.21,2123495
2854,239.29,2505947
2855,210.52,2316374
2856,180.23,1928989
2857,208.23,2201069
2858,243.71,2433881
2859,243.51,2568512
2860,201.43,2020260
2861,241.56,2558705
2862,251.18,2579304
2863,272.15,2828726
2864,161.42,1739761
2865,203.35,2130989
2866,241.58,2474616
2867,287.08,2985121
2868,212.06,2227992
2869,294.88,3089875
2870,291.5,2983855
2871,398.47,4106061
2872,194.94,1952035
2873,342.55,3343338
2874,292.39,2898099
2875,407.93,3864171
2876,246.57,2497030
2877,318.99,3230265
2878,312.7,3115748
2879,378.27,4061121
2880,150.2,1560766
2881,159.03,1713834
2882,174.52,1842387
2883,178.3,1834717
2884,155.66,1690350
2885,184.73,1969932
2886,187.63,2058412
2887,174.77,1895053
2888,185.6,1856372
2889,193.01,2074882
2890,192.25,1994440
2891,187.29,1916060
2892,179.96,1880259
2893,190.94,1993157
2894,194.64,2076633
2895,207.59,2216741
2896,222.52,2290640
2897,231.37,2431631
2898,280.81,2832061
2899,288.43,2997128
2900,238.13,2502066
2901,334.94,3268021
2902,258.57,2802626
2903,308.16,3271175
2904,239.22,2381867
2905,313.89,3205251
2906,285.26,2896387
2907,375.42,3838451
2908,258.93,2590247
2909,336.38,3344558
2910,369.9,3809252
2911,380.05,3930638
2912,174.26,1833008
2913,193.05,2134834
2914,227.01,2377878
2915,222.15,2297825
2916,222.52,2257442
2917,223.03,2290629
2918,216.96,2291533
2919,261.0,2766516
2920,190.51,2014992
2921,215.34,2346203
2922,238.56,2434050
2923,248.77,2621767
2924,237.68,2543480
2925,251.99,2667618
2926,273.8,2884560
2927,287.19,3065058
2928,196.45,2000645
2929,259.52,2757527
2930,247.72,2634159
2931,340.38,3487248
2932,230.15,2547189
2933,370.39,3790043
2934,341.28,3283931
2935,395.93,4020115
2936,200.62,2052797
2937,340.94,3413108
2938,300.49,3045099
2939,498.12,4761774
2940,239.17,2554796
2941,351.41,3825367
2942,407.54,4201276
2943,551.81,5518536
2944,147.32,1531594
2945,135.06,1404351
2946,167.8,1755589
2947,151.2,1593407
2948,137.67,1505206
2949,145.55,1547666
2950,177.91,1858642
2951,164.49,1731575
2952,142.96,1567796
2953,188.38,1926365
2954,219.64,2261241
2955,183.99,1970901
2956,159.98,1685145
2957,172.49,1867684
2958,190.51,1996940
2959,186.71,2009261
2960,166.02,1731053
2961,213.44,2150005
2962,245.87,2496042
2963,288.17,2854376
2964,199.08,2089822
2965,277.43,2821451
2966,245.52,2564278
2967,311.12,3241296
2968,201.53,1999696
2969,278.32,2803164
2970,306.47,3062438
2971,354.71,3623355
2972,233.23,2300318
2973,335.65,3260572
2974,371.8,3571072
2975,375.75,3737011
2976,153.6,1641644
2977,184.01,1991275
2978,199.65,2147450
2979,263.47,2571499
2980,181.94,1921808
2981,222.5,2225261
2982,220.61,2280200
2983,229.75,2480398
2984,210.08,2169892
2985,283.62,2775946
2986,298.04,2901256
2987,305.62,3078087
2988,213.46,2209951
2989,255.45,2690056
2990,284.73,2933833
2991,338.35,3527027
2992,169.1,1786290
2993,239.54,2603421
2994,279.43,2852667
2995,358.63,3601363
2996,196.98,2051445
2997,327.91,3273775
2998,321.86,3179421
2999,405.39,4332427
3000,218.1,2214363
3001,405.45,4045296
3002,374.44,3629035
3003,452.35,4348284
3004,258.75,2557370
3005,425.84,4469233
3006,414.1,4276584
3007,546.21,5056908
3008,118.32,1285216
3009,132.67,1425792
3010,171.08,1820126
3011,189.2,2022313
3012,148.24,1578118
3013,186.38,2068968
3014,190.46,1979730
3015,195.05,2111507
3016,146.17,1507394
3017,166.26,1700701
3018,211.08,2120134
3019,239.87,2490360
3020,169.38,1776758
3021,188.75,2006091
3022,216.8,2287416
3023,232.37,2458260
3024,191.36,2034754
3025,267.02,2612978
3026,258.11,2520735
3027,311.44,3085343
3028,245.25,2547528
3029,329.72,3359267
3030,356.01,4016342
3031,381.94,3887760
3032,228.34,2293672
3033,361.84,3641259
3034,334.29,3547638
3035,398.48,4164778
3036,232.49,2460052
3037,362.52,3549795
3038,372.72,3673342
3039,470.23,4384926
3040,133.29,1456518
3041,198.92,2107674
3042,206.9,2148110
3043,257.7,2814393
3044,159.91,1679837
3045,220.84,2305613
3046,226.96,2416439
3047,347.94,3686880
3048,169.58,1801104
3049,234.74,2408824
3050,246.52,2523229
3051,338.57,3268173
3052,185.38,1897987
3053,320.44,3317481
3054,297.03,3098300
3055,372.94,3832376
3056,197.5,2016107
3057,296.4,3031858
3058,275.74,2799255
3059,400.39,4286458
3060,237.4,2467304
3061,394.09,4097614
3062,348.81,3555657
3063,543.53,5438844
3064,257.62,2585354
3065,404.34,3816718
3066,413.87,4248503
3067,547.34,5656963
3068,303.71,3511998
3069,564.95,5727048
3070,401.21,4086302
3071,772.22,7536739
3072,260.96,2689964
3073,202.27,2063444
3074,298.02,2954580
3075,170.47,1803456
3076,320.74,3249189
3077,206.89,2008656
3078,223.58,2364061
3079,171.3,1743498
3080,234.28,2350569
3081,175.02,1797529
3082,254.74,2614454
3083,151.73,1577847
3084,226.49,2251304
3085,156.26,1605472
3086,198.27,2013443
3087,127.63,1379517
3088,205.99,2176365
3089,206.28,2225372
3090,239.92,2429905
3091,194.69,1985009
3092,279.63,2813812
3093,244.64,2528825
3094,254.53,2608086
3095,159.79,1754125
3096,218.75,2202720
3097,222.4,2136896
3098,229.6,2296744
3099,212.41,2259093
3100,220.59,2216658
3101,213.66,2143790
3102,240.54,2335956
3103,179.19,1835286
3104,293.89,2977303
3105,197.26,2139450
3106,284.59,2931733
3107,215.96,2167711
3108,283.34,2927680
3109,248.96,2517355
3110,272.11,2699200
3111,198.49,2070407
3112,274.71,2636808
3113,231.95,2416789
3114,250.38,2550193
3115,205.33,2175096
3116,222.22,2303983
3117,211.7,2086249
3118,249.94,2684492
3119,197.55,2019149
3120,232.08,2339874
3121,210.52,2216553
3122,249.54,2582202
3123,232.14,2416558
3124,229.09,2420250
3125,251.51,2509956
3126,233.55,2336415
3127,230.03,2404785
3128,209.24,2105915
3129,243.28,2418218
3130,237.66,2408515
3131,250.6,2533473
3132,227.47,2265656
3133,231.35,2417471
3134,233.48,2484297
3135,213.12,2223104
3136,249.2,2517660
3137,236.76,2449701
3138,279.14,2764393
3139,226.14,2292563
3140,284.11,2752331
3141,265.51,2642167
3142,260.5,2550001
3143,209.4,2276891
3144,250.88,2574761
3145,218.44,2308835
3146,249.56,2583981
3147,184.9,2022716
3148,217.35,2182496
3149,216.57,2238604
3150,214.27,2168173
3151,157.73,1648293
3152,254.07,2446750
3153,275.37,2737622
3154,272.49,2746888
3155,218.19,2389518
3156,321.89,3157056
3157,289.65,2958211
3158,277.12,2864216
3159,248.95,2768769
3160,236.84,2306714
3161,252.38,2616303
3162,279.95,2791380
3163,242.82,2562288
3164,240.79,2510440
3165,272.06,2660781
3166,255.79,2706337
3167,212.64,2195742
3168,232.63,2398636
3169,241.53,2565384
3170,293.92,3089106
3171,211.99,2254230
3172,289.28,2867492
3173,242.44,2469966
3174,267.89,2696866
3175,199.72,2196450
3176,222.25,2293072
3177,228.66,2295568
3178,239.45,2550840
3179,200.89,2184187
3180,240.45,2395884
3181,199.44,2104308
3182,229.73,2443962
3183,167.0,1842146
3184,183.43,2045735
3185,210.62,2309774
3186,280.67,2994682
3187,219.82,2302227
3188,271.54,2804976
3189,277.39,2880988
3190,233.62,2577125
3191,232.62,2562122
3192,186.91,2011410
3193,242.51,2522889
3194,233.41,2424290
3195,294.76,2955395
3196,219.53,2280176
3197,260.25,2705290
3198,229.92,2432818
3199,220.23,2426732
3200,233.31,2370867
3201,209.49,2107249
3202,229.78,2351174
3203,159.19,1600680
3204,253.45,2535060
3205,201.22,1979573
3206,202.38,2135697
3207,160.18,1684016
3208,227.43,2316996
3209,163.78,1742415
3210,232.32,2391944
3211,167.21,1725214
3212,197.52,2116588
3213,159.22,1662137
3214,197.93,2070031
3215,150.75,1588314
3216,211.79,2125737
3217,218.96,2263132
3218,265.67,2657557
3219,200.54,2017452
3220,230.99,2387862
3221,205.82,2181625
3222,220.37,2251610
3223,203.83,2132010
3224,228.1,2259140
3225,224.32,2218677
3226,259.09,2566359
3227,215.67,2238615
3228,254.72,2500811
3229,229.66,2307716
3230,214.66,2231302
3231,194.71,2023189
3232,221.64,2245610
3233,213.32,2184154
3234,264.75,2631765
3235,193.24,1945388
3236,229.94,2404940
3237,255.64,2675990
3238,231.62,2420740
3239,201.27,2109901
3240,210.56,2242941
3241,216.32,2227942
3242,258.64,2652767
3243,232.35,2386746
3244,232.52,2393058
3245,211.36,2256671
3246,257.37,2675955
3247,203.21,2230001
3248,182.03,1822443
3249,215.89,2205323
3250,246.09,2534535
3251,219.9,2355098
3252,215.0,2184454
3253,256.93,2549121
3254,232.69,2432342
3255,243.27,2643801
3256,202.65,2064482
3257,231.21,2548606
3258,233.55,2469829
3259,270.86,2722185
3260,202.85,2203261
3261,308.65,2986516
3262,262.47,2954098
3263,254.59,2641007
3264,208.5,2146756
3265,178.53,1846567
3266,225.15,2285578
3267,167.54,1761739
3268,221.62,2225875
3269,190.56,1944962
3270,186.0,2090133
3271,194.49,2099653
3272,181.26,1963329
3273,189.89,1913473
3274,212.82,2213275
3275,174.6,1827054
3276,181.11,1899543
3277,164.47,1803632
3278,222.9,2295583
3279,148.7,1658155
3280,190.96,2015975
3281,210.6,2126015
3282,241.91,2417737
3283,273.24,2772544
3284,206.03,2140156
3285,279.57,2704845
3286,259.09,2734032
3287,223.82,2381838
3288,196.55,1999653
3289,223.23,2216465
3290,237.21,2433298
3291,276.02,2863926
3292,187.94,1899470
3293,256.98,2607106
3294,250.08,2575258
3295,259.19,2704324
3296,194.83,2068580
3297,194.55,2010920
3298,208.29,2208433
3299,199.52,2069111
3300,216.49,2188695
3301,199.0,2127125
3302,218.06,2241751
3303,201.04,2203424
3304,192.01,2031420
3305,217.12,2226306
3306,244.32,2549042
3307,209.21,2208587
3308,205.21,2161253
3309,208.87,2162883
3310,201.79,2307955
3311,210.66,2331764
3312,190.74,2024095
3313,217.17,2369470
3314,246.98,2643260
3315,222.33,2467281
3316,197.19,2112731
3317,246.84,2647679
3318,251.63,2670052
3319,285.73,3051869
3320,187.39,1978749
3321,269.07,2731324
3322,301.17,3100225
3323,351.5,3466319
3324,213.25,2218619
3325,302.48,3038298
3326,247.88,2675696
3327,349.7,3563063
3328,160.31,1658471
3329,165.89,1687361
3330,186.28,1942433
3331,138.58,1518350
3332,188.15,1919576
3333,152.5,1578820
3334,174.34,1775693
3335,153.66,1700183
3336,149.74,1616432
3337,152.51,1600917
3338,193.07,2028622
3339,154.54,1638214
3340,162.98,1673238
3341,157.47,1625939
3342,177.59,1836801
3343,138.36,1476715
3344,172.34,1784538
3345,179.9,1917709
3346,253.63,2642897
3347,222.92,2307548
3348,217.62,2176357
3349,235.2,2367941
3350,272.03,2641223
3351,239.45,2527918
3352,185.81,1883593
3353,229.43,2239292
3354,203.91,2113376
3355,235.53,2484486
3356,199.1,2019199
3357,268.24,2734184
3358,247.23,2643442
3359,275.54,2855350
3360,184.78,1994427
3361,200.58,1933384
3362,228.29,2399412
3363,229.08,2271412
3364,222.63,2362191
3365,213.69,2285390
3366,224.92,2336703
3367,245.59,2558442
3368,197.01,1953033
3369,226.75,2330081
3370,255.27,2622224
3371,238.0,2510130
3372,206.85,2160621
3373,213.9,2190108
3374,240.16,2514901
3375,244.93,2531416
3376,191.13,1978322
3377,243.59,2606086
3378,256.75,2647550
3379,326.0,3309238
3380,211.54,2126399
3381,322.87,3251797
3382,263.47,2796036
3383,340.97,3513413
3384,201.27,2067205
3385,277.9,2817922
3386,301.0,3229931
3387,331.94,3318045
3388,242.39,2464687
3389,367.76,3723718
3390,330.95,3342798
3391,394.89,3995857
3392,184.02,1899965
3393,195.43,1936761
3394,202.25,1967354
3395,175.95,1900641
3396,218.75,2142870
3397,195.71,1988111
3398,232.84,2394532
3399,182.93,1916049
3400,194.09,1963997
3401,190.7,1914893
3402,197.69,2027950
3403,173.58,1819303
3404,201.71,2024909
3405,195.89,2021814
3406,240.31,2455268
3407,195.98,1991524
3408,233.13,2342684
3409,267.9,2656026
3410,277.62,2862936
3411,272.35,2821261
3412,238.2,2418830
3413,312.88,2994293
3414,316.41,3239567
3415,332.76,3648021
3416,213.86,2188159
3417,295.98,2914163
3418,281.56,3095025
3419,309.62,2979414
3420,287.02,2931794
3421,337.95,3284133
3422,338.56,3408049
3423,341.78,3598054
3424,176.92,1787837
3425,201.26,2107954
3426,233.78,2516430
3427,214.83,2354131
3428,219.56,2206252
3429,227.08,2391942
3430,292.46,3069827
3431,293.73,2955935
3432,172.05,1785515
3433,222.23,2347918
3434,222.01,2286185
3435,253.15,2545707
3436,224.43,2376579
3437,257.72,2612161
3438,238.87,2525083
3439,266.85,2731170
3440,196.21,1970508
3441,306.97,3161880
3442,279.14,2879769
3443,365.61,3785187
3444,271.6,2767463
3445,346.58,3645803
3446,390.81,3806882
3447,416.98,4189385
3448,217.06,2143931
3449,310.64,3177070
3450,314.96,3239883
3451,420.17,3957500
3452,248.01,2478378
3453,372.14,4029852
3454,333.26,3610472
3455,472.56,4784176
3456,137.41,1448011
3457,147.84,1525698
3458,169.97,1765084
3459,142.99,1508650
3460,182.43,1857381
3461,155.32,1591979
3462,157.13,1685826
3463,157.84,1666839
3464,150.43,1560982
3465,153.03,1531928
3466,175.89,1832818
3467,165.49,1763570
3468,152.57,1604248
3469,175.08,1794140
3470,207.8,2184999
3471,182.29,1884931
3472,171.22,1732422
3473,214.87,2146075
3474,232.93,2432174
3475,248.45,2550315
3476,220.99,2271222
3477,235.16,2404108
3478,291.65,2912648
3479,264.24,2639527
3480,174.36,1784626
3481,264.02,2667257
3482,237.93,2426298
3483,335.92,3406394
3484,221.11,2183287
3485,296.92,2999480
3486,285.69,3001111
3487,364.08,3519748
3488,141.78,1470919
3489,188.65,1894585
3490,208.32,2135072
3491,214.66,2282470
3492,200.95,2006304
3493,200.59,2062030
3494,270.29,2831416
3495,222.55,2349041
3496,169.39,1691449
3497,258.39,2522834
3498,238.8,2389554
3499,265.18,2728584
3500,224.67,2234484
3501,267.12,2663601
3502,261.49,2766335
3503,270.54,2738680
3504,155.82,1615535
3505,277.11,2776449
3506,254.81,2755130
3507,382.76,3760395
3508,201.98,2112898
3509,358.31,3617957
3510,305.83,3054764
3511,428.48,3942057
3512,237.61,2289086
3513,343.71,3636656
3514,315.26,3396440
3515,415.68,4313666
3516,304.41,3036938
3517,386.62,3843488
3518,363.04,3602293
3519,509.29,4865736
3520,141.96,1503211
3521,132.29,1405595
3522,158.39,1652335
3523,147.47,1653899
3524,177.32,1831357
3525,182.45,1923190
3526,224.81,2312151
3527,184.26,1968586
3528,138.15,1500395
3529,171.67,1810157
3530,227.55,2308716
3531,207.63,2172900
3532,163.67,1709729
3533,207.2,2073595
3534,230.8,2481514
3535,220.67,2365564
3536,152.5,1602797
3537,237.28,2431912
3538,287.24,2912128
3539,275.91,2934567
3540,226.3,2453425
3541,303.85,3081396
3542,326.2,3377462
3543,417.9,4248803
3544,183.15,1861356
3545,305.94,3006174
3546,271.87,2753403
3547,345.24,3353916
3548,256.05,2537185
3549,319.45,3117943
3550,298.76,3233431
3551,469.03,5014537
3552,170.39,1726136
3553,206.32,2242110
3554,219.24,2261683
3555,255.2,2768329
3556,180.16,1918932
3557,202.4,2081020
3558,253.56,2669816
3559,251.22,2749079
3560,190.4,1942640
3561,205.09,2207498
3562,226.33,2373861
3563,314.95,3346226
3564,188.71,2020433
3565,275.01,2828249
3566,259.43,2786553
3567,304.76,3341352
3568,153.1,1692555
3569,277.0,2847596
3570,271.3,2996112
3571,404.47,4143123
3572,237.81,2543515
3573,340.93,3542085
3574,337.93,3581606
3575,476.92,5208735
3576,221.6,2280649
3577,326.06,3414898
3578,377.95,3986585
3579,548.75,5543859
3580,275.1,2809306
3581,454.61,4476821
3582,440.15,4509808
3583,551.99,5633142
3584,174.15,1882898
3585,176.25,1817921
3586,199.72,2039402
3587,147.94,1576519
3588,227.73,2322196
3589,173.7,1788409
3590,219.29,2193368
3591,157.28,1674148
3592,183.43,1927034
3593,155.14,1641955
3594,174.75,1804325
3595,134.79,1436086
3596,195.86,1952029
3597,143.95,1495741
3598,174.87,1874596
3599,109.85,1210920
3600,196.74,1956959
3601,191.24,1952306
3602,187.55,1944796
3603,230.28,2363994
3604,212.07,2158295
3605,215.96,2177856
3606,220.69,2293023
3607,211.15,2268146
3608,179.48,1811577
3609,197.3,1980483
3610,201.21,2096853
3611,177.59,1877780
3612,191.16,1939817
3613,161.26,1659939
3614,185.76,1974242
3615,170.86,1788444
3616,178.27,1879935
3617,193.23,2029792
3618,246.79,2646926
3619,166.59,1764638
3620,225.94,2288494
3621,228.41,2415516
3622,211.72,2183869
3623,189.17,2027206
3624,182.97,1913422
3625,195.16,1976111
3626,189.81,1999898
3627,194.32,2107846
3628,205.9,2185894
3629,197.64,2058396
3630,206.73,2140159
3631,187.14,1995244
3632,180.56,1872279
3633,241.44,2419180
3634,260.49,2587604
3635,264.48,2602449
3636,206.61,2122284
3637,275.53,2848142
3638,266.7,2777244
3639,242.15,2672765
3640,176.63,1831333
3641,212.63,2179305
3642,228.66,2307493
3643,256.43,2627432
3644,218.44,2205623
3645,246.25,2544959
3646,246.37,2558357
3647,236.32,2430475
3648,200.39,1953156
3649,192.88,1975978
3650,197.18,2072387
3651,168.27,1756171
3652,237.98,2384855
3653,195.8,2035748
3654,197.16,2098320
3655,194.86,2028061
3656,180.57,1914678
3657,177.08,1841933
3658,224.08,2261504
3659,156.27,1690299
3660,198.81,2159686
3661,174.72,1824260
3662,177.68,1919202
3663,173.64,1922103
3664,210.23,2108603
3665,250.71,2700059
3666,274.67,2866722
3667,253.28,2560830
3668,290.48,2913305
3669,261.94,2810166
3670,321.3,3281995
3671,267.32,2890212
3672,200.22,2005591
3673,221.76,2297559
3674,207.26,2172711
3675,241.48,2422226
3676,240.27,2506210
3677,247.27,2437678
3678,236.66,2339880
3679,249.99,2618195
3680,161.44,1692890
3681,192.26,2083365
3682,190.69,2023879
3683,199.49,2173290
3684,178.78,1948189
3685,229.18,2406144
3686,231.86,2396101
3687,210.22,2236366
3688,189.0,1940599
3689,172.1,1939356
3690,220.79,2317449
3691,194.4,2102612
3692,188.53,1938599
3693,188.19,2080083
3694,214.03,2305282
3695,180.24,2025842
3696,200.76,2035329
3697,260.5,2628808
3698,237.71,2419941
3699,259.12,2612161
3700,205.07,2163694
3701,288.18,2986993
3702,290.95,3125153
3703,266.33,2786057
3704,187.28,1957044
3705,289.7,3085381
3706,257.46,2623669
3707,295.82,3030741
3708,204.62,2172757
3709,296.97,2969472
3710,258.59,2741733
3711,318.28,3256841
3712,183.83,1874513
3713,130.37,1399685
3714,196.99,2090543
3715,140.24,1509141
3716,158.51,1659385
3717,158.41,1668527
3718,169.16,1766926
3719,132.56,1457079
3720,167.64,1779479
3721,136.65,1453571
3722,197.34,2016694
3723,161.45,1680882
3724,162.6,1782755
3725,147.5,1558957
3726,159.86,1705546
3727,131.08,1376125
3728,173.49,1787913
3729,171.4,1772087
3730,206.8,2103539
3731,210.97,2213383
3732,217.15,2268429
3733,210.45,2205181
3734,233.18,2427983
3735,222.04,2263577
3736,202.19,2011953
3737,223.0,2161277
3738,247.21,2450081
3739,249.04,2431172
3740,232.36,2374070
3741,248.66,2464943
3742,237.18,2527374
3743,234.02,2512224
3744,159.67,1674178
3745,199.27,2037565
3746,200.51,2129403
3747,201.62,2036360
3748,183.74,1933130
3749,204.67,2155163
3750,198.64,2197274
3751,188.89,2028828
3752,178.83,1875826
3753,168.94,1746203
3754,232.75,2442251
3755,221.26,2360733
3756,186.54,1957639
3757,217.09,2169831
3758,249.01,2611337
3759,223.42,2308136
3760,163.35,1699559
3761,209.1,2309456
3762,213.49,2176043
3763,235.26,2488014
3764,177.68,1944992
3765,298.35,3014212
3766,280.35,2922954
3767,316.82,3250711
3768,175.94,1862003
3769,259.0,2563207
3770,265.63,2773597
3771,308.28,3149392
3772,196.09,2069326
3773,338.07,3517224
3774,293.1,3043111
3775,366.5,3724166
3776,145.09,1548843
3777,145.84,1592900
3778,164.57,1735317
3779,129.75,1435766
3780,169.52,1743736
3781,185.16,1936598
3782,163.54,1756920
3783,156.97,1675980
3784,136.52,1474551
3785,175.64,1781186
3786,208.51,2104594
3787,162.5,1794122
3788,170.93,1783104
3789,160.4,1742866
3790,187.72,1937775
3791,164.59,1692413
3792,169.51,1763234
3793,227.68,2381297
3794,259.46,2617664
3795,215.32,2273419
3796,201.49,2053115
3797,260.46,2653687
3798,260.43,2777489
3799,253.21,2653073
3800,180.17,1927250
3801,266.67,2674522
3802,259.14,2720766
3803,306.19,3228855
3804,202.36,2136217
3805,286.99,2898982
3806,294.99,2972462
3807,277.7,3004369
3808,141.62,1481289
3809,192.85,2122366
3810,174.87,1832813
3811,187.22,2086124
3812,146.77,1566472
3813,192.77,2037055
3814,201.46,2124034
3815,218.23,2379732
3816,167.9,1742776
3817,167.66,1791011
3818,196.35,2074982
3819,235.05,2499540
3820,207.99,2148156
3821,201.27,2178924
3822,204.85,2333738
3823,224.64,2341649
3824,171.93,1834580
3825,213.58,2229458
3826,231.97,2387563
3827,272.51,2959698
3828,181.61,2022792
3829,302.66,3063361
3830,249.98,2768303
3831,263.39,2953332
3832,184.78,1949471
3833,290.96,3077708
3834,301.0,3031879
3835,393.86,3789648
3836,218.95,2240600
3837,297.64,3156567
3838,294.19,3248052
3839,405.31,4008841
3840,113.06,1223001
3841,109.71,1146096
3842,125.61,1327483
3843,121.65,1336312
3844,112.84,1225732
3845,110.95,1171621
3846,136.09,1449574
3847,105.13,1163245
3848,112.45,1238373
3849,113.07,1223769
3850,166.71,1765675
3851,111.08,1221845
3852,117.21,1286348
3853,115.93,1236229
3854,160.16,1722655
3855,117.46,1287198
3856,136.95,1416506
3857,175.1,1856258
3858,171.09,1801838
3859,173.58,1896630
3860,151.35,1601567
3861,208.93,2135233
3862,214.71,2203276
3863,225.58,2346122
3864,121.68,1310376
3865,180.58,1833793
3866,175.25,1784498
3867,228.91,2470332
3868,180.46,1833191
3869,240.04,2508977
3870,208.47,2098843
3871,278.2,2833794
3872,142.57,1491030
3873,148.03,1564032
3874,190.05,1985376
3875,186.07,1941832
3876,149.99,1588073
3877,175.54,1879608
3878,184.44,2000321
3879,206.26,2160750
3880,141.62,1458690
3881,181.66,1887496
3882,168.77,1728371
3883,211.17,2212291
3884,145.39,1523428
3885,169.66,1822979
3886,221.37,2343749
3887,209.66,2323995
3888,120.67,1308931
3889,225.92,2421096
3890,196.03,1993230
3891,310.33,3200228
3892,200.44,2072593
3893,302.71,3170782
3894,244.06,2594464
3895,306.78,3287520
3896,176.44,1827632
3897,299.87,2858459
3898,239.16,2451989
3899,337.71,3289974
3900,196.06,2064011
3901,318.86,3208259
3902,322.04,3290131
3903,398.5,3699756
3904,115.8,1229808
3905,149.54,1627081
3906,148.11,1540612
3907,161.15,1653908
3908,135.53,1455041
3909,171.02,1851716
3910,181.15,1899687
3911,156.56,1668690
3912,129.02,1339266
3913,128.03,1362983
3914,149.55,1587415
3915,153.67,1582556
3916,151.96,1597127
3917,175.97,1810080
3918,166.22,1881368
3919,177.79,1901182
3920,150.79,1593650
3921,224.66,2251276
3922,206.09,2093535
3923,295.68,3009046
3924,209.62,2072445
3925,257.63,2731278
3926,271.46,2719461
3927,292.64,2929841
3928,157.72,1680747
3929,267.9,2644672
3930,257.44,2598357
3931,346.88,3378184
3932,228.61,2250357
3933,273.91,2825852
3934,270.4,2808936
3935,304.04,3072807
3936,125.53,1317703
3937,169.32,1847861
3938,206.5,2257040
3939,195.83,2061853
3940,162.99,1782629
3941,221.59,2310570
3942,202.81,2245267
3943,279.59,3094754
3944,147.94,1601290
3945,192.72,2055165
3946,195.34,2123327
3947,245.6,2553843
3948,178.71,1904807
3949,214.6,2257710
3950,212.58,2420810
3951,269.82,2832823
3952,144.81,1596602
3953,239.97,2668712
3954,206.27,2243205
3955,314.46,3295054
3956,219.98,2293003
3957,346.36,3753585
3958,273.52,2859255
3959,442.12,4393355
3960,171.21,1878516
3961,299.95,3203838
3962,264.67,2759022
3963,408.37,4063735
3964,223.6,2343966
3965,349.97,3805297
3966,326.3,3535089
3967,548.47,5249819
3968,90.04,1004558
3969,100.31,1092923
3970,137.36,1454084
3971,117.22,1284555
3972,87.11,981361
3973,103.64,1152600
3974,115.4,1303868
3975,129.35,1366053
3976,103.62,1088885
3977,123.54,1312222
3978,121.33,1316403
3979,144.84,1570162
3980,133.15,1428557
3981,132.41,1407964
3982,130.84,1430805
3983,149.0,1637198
3984,108.59,1198775
3985,180.85,1952846
3986,192.01,2062078
3987,221.35,2181197
3988,148.73,1573488
3989,214.41,2129694
3990,223.4,2233866
3991,311.58,3272231
3992,143.27,1511166
3993,234.1,2323733
3994,196.48,2103154
3995,284.28,2898494
3996,198.73,2051835
3997,292.09,2838784
3998,251.1,2724460
3999,351.05,3600389
4000,97.8,1062315
4001,128.24,1340919
4002,156.44,1664459
4003,213.99,2128906
4004,109.08,1239059
4005,181.29,1916422
4006,182.43,1948286
4007,205.89,2208464
4008,160.47,1660331
4009,188.33,1941864
4010,174.36,1811813
4011,275.86,2800735
4012,149.94,1603191
4013,209.05,2168822
4014,218.1,2313261
4015,302.4,2978383
4016,142.91,1537782
4017,211.26,2161367
4018,220.55,2226034
4019,278.89,2813856
4020,170.5,1779634
4021,317.78,3093862
4022,281.94,2895826
4023,401.69,4270470
4024,162.2,1687622
4025,335.66,3116096
4026,334.08,3354907
4027,484.31,4442964
4028,237.26,2463468
4029,386.45,4084515
4030,353.23,3615486
4031,548.23,5475145
4032,86.53,913656
4033,131.43,1460128
4034,116.02,1257164
4035,125.34,1414642
4036,111.58,1235623
4037,116.45,1267109
4038,136.0,1469067
4039,130.86,1488658
4040,95.88,1043528
4041,143.08,1567542
4042,154.45,1579290
4043,147.32,1562900
4044,127.33,1374612
4045,168.58,1812537
4046,173.1,1890083
4047,190.94,2036409
4048,128.06,1388404
4049,190.99,1979527
4050,159.69,1716873
4051,280.58,2944849
4052,172.82,1800151
4053,239.84,2420416
4054,237.4,2509588
4055,338.51,3700560
4056,147.51,1578899
4057,268.55,2652998
4058,246.55,2518815
4059,352.79,3588519
4060,190.1,1978148
4061,297.4,2956955
4062,270.62,2849626
4063,415.28,4033648
4064,104.88,1107656
4065,170.37,1811698
4066,142.44,1541891
4067,191.83,2059430
4068,118.23,1304648
4069,182.01,2078395
4070,182.04,1991831
4071,229.67,2440989
4072,126.51,1373617
4073,193.14,2099237
4074,191.25,1990417
4075,265.47,2887112
4076,165.85,1799104
4077,190.76,2150388
4078,195.62,2148321
4079,306.0,3309047
4080,141.8,1517218
4081,219.63,2287647
4082,209.34,2277652
4083,359.74,3577135
4084,179.0,1898163
4085,340.28,3440746
4086,297.68,3199707
4087,423.38,4430613
4088,196.6,2087269
4089,332.88,3687814
4090,334.57,3394126
4091,536.9,5590158
4092,226.88,2431577
4093,408.34,4215078
4094,315.36,3265775
4095,588.26,5660756
