index,time,conflicts
0,12.89,161861
2,16.41,210638
6,12.47,155223
8,12.08,151567
9,24.28,304033
10,18.76,219081
11,16.46,192747
13,20.8,261766
14,12.81,162351
15,36.59,384391
18,10.61,139510
19,19.67,241034
20,24.32,280147
21,16.31,206143
22,15.09,190451
23,17.01,210857
25,17.44,217748
27,16.62,202219
28,18.59,239134
31,19.85,233475
34,18.45,225583
35,25.1,297311
36,20.41,249310
39,31.62,363780
40,17.76,213494
41,17.99,214418
43,16.56,197747
44,20.4,250500
46,16.44,215382
47,18.56,227970
48,22.39,270674
50,20.22,253588
52,31.18,328881
55,21.46,272970
56,17.62,211257
58,20.2,246884
60,17.57,225381
61,19.59,236368
63,9.66,129357
64,23.03,276761
66,20.36,252344
67,17.63,205555
68,16.72,205651
70,18.95,222410
71,15.8,198620
72,21.58,262205
76,15.53,194982
77,18.78,236438
78,23.41,258778
80,12.4,154091
81,21.84,270448
84,15.77,199319
85,16.12,204956
86,15.9,192273
87,12.91,164634
88,26.02,296760
89,29.44,311245
91,10.1,126928
96,17.28,222237
98,18.56,221407
99,18.61,214806
100,15.65,186708
101,19.66,225700
104,13.01,165985
106,9.28,113796
109,26.23,291212
111,10.62,134041
112,14.61,183540
117,23.21,261854
119,18.06,223159
120,18.15,226803
121,15.37,190734
122,14.34,174477
123,18.2,212834
124,17.76,227004
127,21.8,262874
128,14.48,179776
129,16.05,196338
130,17.0,210796
133,14.02,175302
134,18.74,235674
135,22.39,261009
137,16.39,204266
138,19.94,231936
139,16.47,212449
142,22.18,266416
143,16.28,201732
144,18.67,241151
145,16.32,204767
146,16.86,217743
147,23.75,289945
148,19.86,240122
149,17.18,213666
150,21.88,269334
151,36.24,358569
152,19.32,246011
153,18.33,215416
154,17.9,223961
155,19.04,232811
156,18.2,229722
158,19.33,231068
159,19.0,232919
162,19.6,231876
163,24.87,288316
164,17.27,217395
165,15.58,188204
166,18.39,208202
167,23.96,271266
168,23.04,278389
169,25.82,313409
170,19.21,222474
171,20.27,245291
172,10.36,130955
173,22.8,289278
175,21.85,275993
176,19.01,230377
178,17.23,216125
179,28.42,348814
181,21.37,273177
183,16.97,214888
185,21.34,249070
187,12.24,149647
189,9.85,133837
192,15.23,196180
194,16.36,207432
195,7.33,92299
196,24.64,284158
199,22.06,278489
200,19.19,229991
202,19.51,238088
203,17.08,218773
205,33.12,350108
207,20.17,237688
208,17.36,203626
209,19.32,239833
210,22.98,253588
212,18.93,242339
213,24.05,271143
214,21.43,270061
215,20.17,251839
217,22.15,256802
218,17.09,215353
220,19.42,239349
221,30.36,335063
222,14.75,186525
225,18.27,224854
226,20.73,255423
228,18.28,240134
229,21.77,266698
230,17.97,223194
234,17.92,217930
235,27.22,310120
237,18.06,216885
238,13.41,169868
239,17.66,209856
240,20.71,247494
241,17.66,222176
242,15.38,174653
245,24.51,286195
246,14.41,181331
248,25.15,301571
249,18.02,217782
250,15.85,194285
252,19.09,228064
253,18.92,223173
256,18.63,226980
257,18.6,229483
258,20.93,251449
259,18.99,238824
260,23.05,281928
262,8.63,111679
263,15.32,182783
264,25.02,281340
265,14.01,181119
268,35.78,389934
269,20.87,261951
270,16.81,209379
271,19.5,239114
272,19.8,237790
273,8.3,108525
275,35.26,362104
277,24.51,314682
278,33.13,344641
282,12.32,153381
283,18.76,233003
285,21.74,257001
286,19.7,240664
287,20.11,250789
288,23.76,265499
290,18.41,228813
292,17.16,200579
293,17.97,224560
294,16.79,209731
295,21.02,252576
296,31.16,351257
297,19.9,240355
298,11.3,138702
299,13.22,160869
300,14.4,180643
301,27.89,316124
302,17.89,218246
303,17.82,218502
304,20.19,246647
305,18.02,222915
310,18.58,229584
311,18.62,219877
313,19.96,235757
314,18.29,223169
315,13.98,176095
316,21.86,260977
317,17.53,224422
319,17.77,228285
320,19.05,222843
322,17.64,229593
324,17.44,227040
325,20.22,240137
326,11.48,138841
327,32.95,373813
329,19.82,236617
330,15.94,191091
331,17.74,227014
332,36.33,365172
334,16.56,212891
336,18.77,232867
339,20.81,261804
340,22.08,267407
341,21.72,256778
342,23.06,270414
345,15.85,200295
346,16.61,200095
348,18.61,230499
349,14.78,181775
351,15.51,196505
353,17.77,210991
355,10.71,130789
356,12.82,165593
361,24.25,284240
362,18.98,229105
363,17.09,211607
365,12.26,154828
366,19.33,228044
367,11.97,149853
369,16.01,195969
370,20.89,260227
371,21.5,254315
372,19.9,247336
373,21.67,273789
374,18.2,223140
375,19.37,235605
376,17.01,211009
377,18.15,228172
379,24.01,279752
380,20.17,246772
381,13.5,172430
382,25.86,289665
383,15.69,186177
384,8.02,97255
386,24.69,283436
389,15.55,191825
390,25.24,291890
392,18.35,226986
393,15.54,181983
394,18.63,231368
395,16.51,207419
396,22.41,254465
398,13.41,167311
399,28.34,312144
402,25.17,313368
403,22.25,256471
408,15.53,190384
409,16.78,207572
410,19.07,238493
411,29.15,311337
412,18.95,224590
414,23.38,278632
416,20.07,227383
418,17.48,217484
419,19.77,241320
421,20.58,246411
422,18.7,230535
423,30.68,327931
425,19.7,240959
426,22.81,282530
427,22.76,264190
428,28.58,332096
431,17.76,217366
432,21.17,257009
433,18.93,225741
435,19.31,232392
437,22.46,287375
439,24.17,281829
440,23.61,283303
445,12.78,149996
447,15.58,197496
449,17.29,209674
451,17.5,210637
452,19.33,239272
454,18.93,230011
455,20.41,253169
457,24.41,273371
460,17.13,217122
461,22.67,275401
462,21.68,264699
463,20.75,258208
464,20.58,260196
465,20.91,256643
467,16.14,196649
468,20.52,252887
469,18.71,235435
470,25.68,317962
471,21.98,249826
472,18.21,230163
473,19.65,244051
474,15.4,190312
475,17.76,214430
476,22.97,253862
478,17.29,217046
479,24.69,308886
480,13.6,171434
481,15.72,200405
483,17.08,213219
484,18.66,224365
485,20.03,244955
486,21.75,258518
489,12.74,147851
491,18.24,226760
493,23.14,280063
494,20.44,259884
495,19.5,237926
496,23.63,306179
498,22.49,270119
502,8.51,111768
504,21.24,273223
507,17.63,210093
508,18.66,220593
510,23.03,272032
511,11.5,141748
512,13.62,174544
513,17.95,215243
515,18.16,222194
518,20.24,237890
520,20.86,245996
521,25.63,280773
522,18.34,236479
524,19.21,233774
526,45.34,479450
527,10.98,136282
528,20.67,250160
529,17.29,217678
530,15.59,195773
531,16.01,198173
533,18.94,218483
535,15.28,187386
536,15.3,183248
537,24.4,280303
538,17.76,217955
539,11.76,152792
540,16.31,202737
541,17.86,210373
543,6.98,91373
544,18.92,231671
545,18.95,230748
546,23.84,276523
547,18.21,220367
548,11.35,138130
549,11.61,144314
550,18.6,228642
551,17.79,216253
552,22.57,250540
553,18.93,234170
554,21.07,252283
555,16.53,205543
557,21.18,268356
559,22.04,261561
560,15.38,202167
561,17.63,210624
562,18.53,234986
563,22.15,276480
564,18.75,230486
565,16.41,187183
567,21.1,273654
569,21.75,266786
570,9.71,121432
571,27.8,341801
572,21.35,266651
574,20.26,250301
575,18.67,239392
580,33.05,351104
581,17.1,204164
582,16.11,200914
583,18.46,223375
584,21.35,253035
586,19.11,226697
587,38.08,414221
588,17.68,211689
590,23.41,281765
591,13.78,177146
593,14.32,171698
594,18.43,226662
596,19.87,247231
597,16.36,210423
598,16.72,212429
599,18.68,236867
600,19.19,237256
601,18.71,228740
603,19.49,245891
606,13.45,164885
607,22.77,285401
610,16.84,202577
611,19.8,247898
613,18.89,239212
614,19.13,222202
616,23.58,280321
617,21.31,258337
619,17.49,222848
620,23.44,265000
622,19.68,240105
623,22.34,243598
625,18.25,232237
626,17.25,219031
627,32.44,360469
628,15.7,204311
629,23.59,278107
630,20.09,249119
632,29.62,338189
634,20.46,258822
638,19.76,224448
639,17.48,223243
641,17.93,223018
642,18.24,217750
643,22.45,274878
644,20.22,241406
646,19.88,245604
647,19.78,247759
648,13.49,168732
649,13.77,175992
653,20.32,246271
654,23.56,284067
655,20.99,246919
657,39.15,398906
658,16.41,202263
659,19.82,245537
660,26.04,309057
661,16.86,206292
662,19.52,246961
663,15.56,196993
664,26.76,292165
665,22.55,262720
666,17.61,212247
667,30.12,347229
668,19.94,247178
669,9.83,127835
670,22.13,261889
671,18.0,225673
672,15.48,180278
673,29.73,374510
675,19.33,231424
677,25.36,291437
678,23.15,295808
679,17.33,222760
682,11.02,140316
683,17.9,220103
686,15.33,190449
687,18.54,228850
689,18.07,225784
690,22.14,277504
691,21.65,250420
692,20.32,248454
695,13.57,176446
696,15.36,190327
697,14.17,183223
698,23.13,268241
701,12.35,155905
702,19.79,243337
705,18.91,235850
706,29.34,322935
707,18.33,230011
709,16.03,197520
710,19.79,241609
711,17.77,204312
713,18.81,228995
714,20.38,244987
719,16.8,211205
720,26.19,304477
721,22.53,268414
723,16.55,203692
724,18.38,230916
726,19.39,243514
727,18.04,206738
729,17.76,213686
730,17.69,220395
731,15.61,198876
732,28.74,336497
733,15.64,190364
734,11.68,145888
735,19.65,245549
736,18.68,230449
738,22.22,274013
739,43.62,439357
740,20.96,261117
742,16.91,207568
744,27.79,319635
745,21.8,266596
747,15.92,203132
748,20.42,255177
751,18.54,225757
755,18.99,240052
760,17.24,221818
761,25.1,305847
762,28.98,328033
764,16.5,208023
765,28.43,305411
768,20.98,263548
769,20.76,244821
770,18.82,228110
772,18.6,233123
774,7.0,92484
777,21.44,259966
778,18.39,236765
779,17.53,215997
780,11.88,148560
782,18.83,238408
783,22.69,267976
784,22.96,283267
786,22.58,257607
787,24.63,304642
788,17.94,223703
789,19.95,235309
790,18.08,221483
793,16.64,210376
794,21.31,270809
795,17.87,220189
796,24.18,284116
797,23.08,281891
798,21.18,255566
799,19.62,245185
800,19.2,228294
802,17.65,210328
804,19.64,241442
806,19.16,241804
807,24.15,291622
808,25.74,273492
809,22.67,267450
812,12.74,152649
813,20.19,252919
815,16.07,204020
816,20.95,241521
817,17.75,214761
818,21.38,265943
821,21.05,254151
822,20.5,243148
823,16.13,207970
824,16.46,212192
827,20.12,241722
828,18.66,218910
829,20.04,234546
830,18.03,213962
831,18.69,247259
832,21.01,253849
833,30.64,358883
834,19.42,247922
835,20.79,246197
837,18.51,220750
840,21.58,260873
841,10.6,140473
843,19.65,232703
846,19.9,233816
849,14.51,183657
850,22.09,255431
851,12.28,153439
852,16.89,212527
856,17.51,214871
857,21.75,277254
858,17.54,221088
859,18.94,232358
860,17.4,224591
861,11.67,148003
864,11.35,140877
865,13.99,176767
866,21.86,271128
868,10.88,131635
870,13.88,173476
871,22.32,274439
872,16.88,215150
874,19.13,235987
875,18.1,224580
876,18.5,200866
877,45.99,475592
878,22.09,267321
879,14.7,185930
881,20.97,251351
882,17.43,211458
883,20.53,253882
886,18.12,219293
887,19.2,228255
889,27.18,305144
890,14.11,175435
891,40.72,421690
892,15.13,186058
893,18.8,237945
894,19.49,242958
895,20.41,242334
896,28.39,309585
897,18.51,227553
899,17.34,210215
900,19.06,231144
903,18.34,223730
905,18.31,222043
907,16.51,197708
909,22.14,268861
911,18.64,224270
912,13.27,163263
914,23.64,306619
915,26.77,279542
917,19.3,238137
919,19.97,237312
920,24.54,298971
921,18.81,237218
922,16.84,206814
923,21.77,268286
924,15.3,189625
925,15.76,194011
926,16.6,203763
928,16.4,188504
929,20.33,245091
931,17.2,199516
932,20.7,259227
934,24.63,293698
935,22.92,282096
936,17.99,224837
937,18.49,223084
938,18.68,222298
941,18.12,229935
943,17.44,218797
945,20.52,250947
946,18.24,225241
947,18.77,237453
948,19.89,234411
949,19.15,238747
951,20.28,247633
952,12.53,159213
954,23.47,277805
957,16.2,193857
958,19.76,243278
959,14.02,174723
962,21.26,243792
963,17.18,215365
964,20.49,249672
965,21.77,272365
968,23.13,290417
970,23.7,275508
971,21.42,266157
972,19.86,250904
973,21.48,261500
975,29.48,336523
976,22.53,248912
977,19.95,240219
978,19.57,239586
979,15.76,196177
981,13.88,170193
982,14.54,168579
983,16.93,204780
984,17.63,213820
985,19.02,224985
988,16.05,198696
989,17.63,223391
990,19.99,246696
991,18.93,233104
992,18.13,213218
993,18.18,231415
994,15.41,184137
995,15.42,189777
996,10.1,130757
997,11.91,153170
998,18.75,227903
999,15.19,183943
1000,18.11,231500
1003,22.68,270857
1005,15.97,190641
1006,19.9,237376
1008,25.34,279001
1009,19.15,241968
1012,15.77,201148
1013,21.32,243383
1014,18.21,226712
1016,15.55,198031
1017,13.49,164261
1019,16.4,204794
1020,18.37,227793
1022,20.55,245846
1023,21.21,270063
1024,18.19,228036
1025,24.19,285628
1032,13.1,163462
1033,16.54,208376
1034,20.07,223005
1035,16.65,207008
1037,20.73,242343
1038,18.44,238773
1039,19.06,238553
1041,15.68,202052
1042,17.39,222289
1043,19.13,237400
1045,19.02,237175
1047,20.29,230052
1048,15.83,183117
1049,18.35,236703
1050,19.75,232564
1052,24.14,286486
1053,25.47,305746
1054,18.7,231017
1056,17.7,222323
1058,30.62,337861
1059,15.54,195497
1060,15.58,196303
1061,16.98,207808
1062,28.08,317535
1063,18.06,225200
1065,21.16,251122
1067,21.13,230929
1068,18.03,223357
1069,21.36,255436
1072,26.93,294984
1073,17.91,219698
1075,22.0,267559
1076,19.14,243375
1077,19.35,220957
1078,19.91,241407
1079,27.12,304014
1081,18.3,231702
1083,15.67,195178
1084,22.41,262629
1085,18.42,233812
1086,18.26,231185
1087,14.71,173333
1088,15.65,201001
1089,24.22,285965
1093,22.46,269517
1094,14.22,186138
1095,15.45,182791
1096,20.54,240452
1097,18.98,235361
1100,18.55,226773
1103,7.23,96166
1104,21.51,240835
1105,15.57,185018
1106,23.07,276262
1110,22.14,267212
1111,12.57,153699
1112,26.88,304762
1113,16.22,193347
1114,20.73,258844
1117,13.01,157696
1120,17.98,223869
1121,20.24,244439
1122,17.62,222836
1124,16.01,201872
1126,14.39,177125
1127,21.77,250692
1129,13.57,169043
1130,20.01,241413
1131,18.87,227245
1133,15.66,188047
1134,24.43,279370
1135,24.02,293294
1136,24.96,294885
1137,21.47,264070
1141,11.07,136651
1144,10.24,134193
1145,19.47,242343
1147,18.53,226221
1148,17.77,216023
1150,20.52,252003
1151,15.24,184357
1153,17.36,217136
1154,16.22,195563
1157,18.26,224505
1158,20.9,254453
1159,16.24,207546
1160,18.73,237412
1162,19.0,230155
1163,20.14,255329
1164,16.1,199598
1166,20.46,261359
1167,20.74,261275
1168,19.6,244455
1171,20.7,240752
1172,20.3,250094
1173,19.28,243453
1174,17.31,213079
1176,20.23,260090
1177,8.76,109515
1179,19.66,252531
1180,17.51,214211
1181,26.22,293915
1182,16.3,208409
1183,10.5,127864
1184,17.85,218176
1185,18.96,238266
1186,15.55,200310
1187,19.4,237226
1188,20.8,262913
1189,17.64,216755
1190,17.04,215093
1191,13.74,175225
1193,16.21,203918
1195,18.11,223563
1196,20.04,240898
1197,19.46,240945
1198,21.09,254444
1200,22.47,258330
1201,22.59,258955
1203,17.03,211432
1204,22.16,262902
1205,17.61,207942
1206,16.63,211252
1207,20.35,249191
1208,21.18,271102
1209,16.61,203275
1210,9.62,119765
1211,22.36,270623
1212,15.55,193088
1214,18.07,202424
1215,18.71,218448
1216,16.78,206040
1217,17.8,219837
1218,21.71,247185
1220,21.94,240915
1221,14.81,191022
1222,18.76,230823
1223,22.16,265784
1224,19.95,249160
1225,19.3,235173
1226,16.19,204094
1227,17.91,231489
1228,15.02,191892
1232,22.18,271264
1233,24.86,282439
1234,20.46,244795
1235,23.68,292145
1236,16.27,199386
1238,19.01,234294
1239,18.53,227270
1241,19.91,236344
1244,18.27,227569
1245,20.78,243491
1246,11.89,151022
1247,9.08,119892
1248,17.18,215925
1249,19.04,232827
1251,45.72,473061
1252,17.33,211832
1253,17.54,212030
1254,24.0,282939
1255,17.49,216634
1256,17.31,229416
1258,17.12,218797
1259,19.96,240792
1260,8.07,101941
1262,18.2,222398
1263,22.35,266024
1264,21.42,249515
1265,14.95,180268
1266,17.25,205466
1267,20.97,253113
1268,19.7,235891
1271,22.03,272125
1272,18.1,232219
1276,18.79,229041
1277,22.36,278588
1279,14.31,186832
1280,19.98,241915
1281,18.25,229508
1282,14.8,183062
1283,24.96,307926
1285,17.46,213325
1286,19.14,230518
1287,20.86,262634
1289,19.96,237539
1290,20.7,255648
1292,17.29,215597
1293,19.12,235607
1294,19.27,239114
1295,15.12,180131
1296,18.55,234162
1297,29.99,341144
1299,17.66,217366
1300,17.8,213165
1301,18.23,227398
1304,19.28,233290
1306,16.45,206331
1307,9.6,125676
1312,29.79,336325
1313,17.55,220262
1314,15.95,204574
1315,21.42,265181
1316,24.04,273711
1318,18.94,231129
1319,9.93,127094
1321,14.48,180776
1324,16.41,197577
1326,26.24,304177
1327,18.7,228641
1328,21.92,258033
1330,16.46,206064
1331,20.07,259551
1332,17.12,220809
1333,16.63,194000
1334,23.25,263338
1335,18.01,225457
1336,20.85,260346
1337,21.84,267025
1339,14.5,183531
1340,19.66,240956
1341,16.74,203614
1343,18.25,227610
1345,18.82,236064
1347,8.47,105601
1349,27.55,303732
1350,20.31,244475
1351,18.14,215912
1352,24.05,273953
1354,19.29,240516
1358,23.5,303780
1360,32.49,355251
1361,22.57,263484
1362,18.33,224978
1363,13.24,168847
1364,51.0,542889
1365,14.98,176162
1366,24.53,278537
1367,24.98,278430
1368,19.49,234725
1372,12.65,155372
1373,19.55,242590
1374,23.43,296414
1375,10.94,142004
1379,16.67,202040
1380,19.46,241599
1381,21.45,257955
1382,25.12,305099
1386,16.81,208109
1388,15.17,196491
1389,20.41,249001
1390,21.21,265173
1391,15.57,200979
1393,18.58,232378
1394,19.07,218901
1396,22.88,262462
1398,22.94,282281
1399,17.9,220743
1400,18.09,224321
1402,19.67,243775
1403,12.42,154511
1404,22.48,247402
1405,15.9,191964
1406,19.39,238916
1407,23.98,287764
1409,17.74,217260
1410,13.14,169102
1411,32.27,358235
1412,17.96,223195
1413,18.22,232209
1414,15.84,198962
1415,15.04,195798
1416,17.18,204485
1417,14.27,178876
1418,12.46,155099
1420,22.73,287425
1421,45.45,478028
1422,16.95,209837
1424,24.33,274632
1426,12.3,151330
1427,51.27,532109
1428,20.14,245922
1429,9.24,122081
1430,15.66,196081
1431,18.11,228255
1432,17.36,212092
1433,12.39,163990
1434,18.04,226728
1435,14.67,178853
1436,20.49,253015
1437,16.64,209506
1440,21.34,262485
1444,14.36,187012
1445,19.67,248090
1447,20.04,251966
1449,18.84,229892
1450,21.26,259521
1453,13.28,166880
1454,18.74,227489
1455,24.62,270157
1456,20.86,242698
1457,23.32,277966
1458,18.55,216864
1459,13.08,160969
1460,18.02,224916
1462,19.21,227027
1464,27.31,314204
1465,33.71,365545
1466,14.7,185446
1467,31.13,328641
1468,16.61,208894
1469,16.07,203419
1470,22.47,257059
1471,17.52,219516
1473,15.03,187930
1474,20.46,256617
1475,22.53,265424
1477,21.74,265502
1478,10.95,136710
1479,21.99,271476
1482,8.62,117958
1483,30.75,337358
1484,25.21,280645
1485,26.19,288327
1488,19.06,230110
1489,19.24,236418
1492,16.2,211061
1495,18.1,223016
1496,16.16,201147
1497,34.06,351067
1498,23.08,254945
1499,26.75,310244
1500,19.32,233397
1501,19.44,239681
1502,20.14,248048
1503,13.44,164169
1504,13.35,168703
1505,18.0,229445
1508,9.88,122669
1509,21.18,255788
1511,18.01,217128
1512,20.15,253791
1514,15.42,199305
1515,25.66,286288
1516,22.07,273328
1517,22.58,255604
1518,20.89,255464
1519,21.83,261924
1520,25.49,276821
1521,16.6,209109
1523,27.61,303186
1524,21.09,256745
1526,31.0,337397
1527,21.98,274498
1529,17.52,206735
1530,17.86,218752
1531,16.97,207801
1533,20.7,244879
1534,19.91,247718
1535,36.33,382090
1537,14.84,179440
1538,16.73,212947
1539,21.66,259347
1540,21.0,259042
1541,15.02,174900
1542,18.96,235512
1543,14.99,175216
1544,20.15,241532
1545,19.96,233116
1546,17.39,204225
1547,24.12,302558
1549,17.0,214762
1550,18.21,228032
1551,18.91,235851
1552,17.49,205895
1555,16.3,203518
1556,19.29,235333
1557,21.23,248268
1558,20.2,245261
1560,12.12,149274
1561,25.06,286213
1562,18.65,232137
1563,17.89,224681
1564,34.11,367197
1567,17.7,226951
1568,52.04,537166
1569,13.1,158933
1570,17.2,214558
1573,22.15,261545
1574,19.22,239111
1576,17.9,229698
1577,16.19,204611
1578,18.53,234706
1579,17.01,207188
1580,11.6,142663
1581,17.82,227845
1582,25.8,290982
1583,11.03,142182
1584,19.01,231492
1588,18.31,223947
1589,22.17,253265
1590,18.32,203998
1591,20.49,239670
1592,27.49,301551
1593,22.33,251571
1594,18.82,237523
1595,23.72,267980
1596,14.24,181323
1597,21.79,246697
1598,22.84,278573
1599,16.51,206659
1600,17.52,213026
1602,20.23,251082
1604,19.64,246966
1605,16.37,200856
1606,16.36,206183
1607,17.79,227618
1609,20.94,255993
1611,20.57,252630
1612,14.68,188164
1613,19.45,249500
1615,20.22,243901
1616,21.66,263110
1617,6.84,90259
1618,23.92,282083
1619,19.42,241039
1620,23.62,289753
1621,20.36,249268
1626,15.96,191318
1627,25.09,278880
1629,21.73,263758
1630,38.34,414918
1634,24.76,292439
1636,13.48,174843
1638,20.17,229720
1639,21.29,262346
1641,27.49,301000
1644,15.9,198279
1645,15.89,203355
1646,19.14,235065
1647,18.7,240936
1648,25.23,287437
1649,15.97,199693
1650,16.79,211723
1652,15.55,190072
1653,23.09,276166
1654,16.59,207684
1655,22.79,251965
1656,14.51,176312
1657,22.74,290251
1658,20.86,273206
1661,17.74,215033
1663,21.57,256737
1664,22.12,261828
1665,28.94,309098
1666,47.47,483075
1669,17.9,227730
1670,14.51,184157
1671,23.38,273966
1672,18.32,223839
1673,16.86,207115
1674,19.95,248582
1680,21.96,263987
1681,24.24,275511
1682,16.59,207876
1683,17.73,225533
1684,15.71,193769
1685,20.8,251787
1687,21.42,267035
1689,14.7,182461
1691,22.34,272978
1693,17.76,225169
1694,17.41,209295
1695,21.28,251375
1696,19.77,239213
1697,9.57,123233
1698,22.25,272053
1699,17.49,211936
1700,17.36,210131
1701,34.57,366035
1702,21.39,252136
1704,14.33,185016
1706,21.35,268724
1707,20.16,235402
1708,25.87,312836
1710,14.04,169293
1711,19.43,226300
1713,20.09,245461
1719,20.0,247196
1720,19.84,251960
1722,21.99,258021
1723,14.48,168044
1724,13.31,164416
1725,15.85,202458
1727,21.85,266052
1728,26.36,298337
1730,17.95,211908
1731,23.2,282673
1732,11.66,142673
1733,17.59,231000
1735,24.45,291306
1736,12.77,156533
1737,23.37,274480
1740,23.3,282121
1742,20.06,249859
1743,18.84,231228
1745,18.59,229960
1746,33.91,353526
1747,25.03,274668
1750,17.91,221784
1751,21.31,254611
1752,26.24,320522
1755,17.57,209292
1756,15.88,197595
1757,21.27,267876
1758,19.64,229016
1759,12.6,161799
1760,15.62,198577
1762,20.29,234826
1764,26.26,319144
1765,20.4,246662
1766,16.89,198394
1769,16.68,218603
1771,15.47,189318
1772,13.33,176470
1773,22.03,246561
1776,20.82,250253
1777,15.92,197561
1779,20.35,256457
1781,22.28,266373
1785,21.67,254175
1786,18.23,224991
1787,17.65,221579
1788,28.46,347190
1790,16.88,215190
1791,20.68,256522
1792,16.85,197021
1794,29.43,326580
1795,19.14,238121
1798,17.55,228943
1799,25.42,289885
1801,16.9,201648
1802,15.69,193872
1804,15.07,190860
1805,19.79,246001
1806,9.94,122581
1808,19.26,241159
1809,18.32,226051
1810,19.42,233014
1812,17.7,216368
1813,18.46,228126
1814,20.78,239625
1815,13.23,161010
1817,17.12,215902
1818,13.28,173136
1819,16.21,207763
1820,16.7,208036
1821,13.92,170288
1822,13.89,184757
1824,13.64,173284
1826,16.21,204925
1828,18.88,229649
1830,17.28,214526
1831,14.26,172097
1832,22.56,278182
1833,18.94,229992
1834,14.15,173425
1835,17.49,218340
1836,18.17,214625
1837,20.16,270881
1838,20.36,242544
1840,15.68,192365
1842,15.25,189459
1844,16.77,213995
1850,19.51,238625
1851,17.12,213037
1852,16.17,199215
1853,16.57,200692
1854,20.1,250716
1855,17.48,218053
1856,14.61,184250
1857,19.89,238122
1858,20.49,237335
1859,24.02,301800
1860,21.49,260425
1861,14.09,178996
1862,16.74,219215
1863,15.49,196678
1865,21.14,245555
1868,19.54,243014
1869,19.95,243640
1870,15.25,200909
1871,20.82,247086
1873,18.55,233311
1875,20.91,260751
1876,18.85,224218
1877,20.99,251814
1878,18.26,224003
1879,18.88,232186
1880,18.44,225658
1881,26.98,304846
1882,20.56,234563
1883,18.39,222884
1886,21.18,268293
1888,12.0,152036
1891,20.58,245110
1892,27.55,305965
1893,18.75,232443
1894,19.35,228624
1895,18.05,224851
1896,19.28,239277
1897,28.87,334713
1898,9.83,129784
1899,13.68,172581
1900,18.3,222661
1903,19.95,247344
1904,26.17,298256
1906,22.1,254112
1907,15.09,187272
1908,21.44,260266
1909,22.84,272674
1910,17.2,219350
1911,21.29,263791
1912,27.87,312590
1914,14.85,188156
1918,23.71,269062
1919,15.91,194051
1920,23.62,268609
1922,8.7,107590
1923,20.29,248382
1926,15.62,197325
1927,20.74,256476
1929,20.77,246236
1930,18.65,222490
1931,16.77,201456
1933,20.99,254964
1934,18.45,226285
1935,17.75,211442
1938,21.4,268543
1939,18.43,235248
1940,7.6,92484
1941,17.17,208404
1942,24.3,254037
1943,14.96,185903
1945,12.4,158769
1947,19.22,226219
1948,24.5,287259
1949,18.24,225006
1950,15.48,202122
1954,18.29,232407
1956,6.62,84914
1957,26.02,315083
1958,17.91,224329
1959,17.39,213775
1960,17.8,224591
1961,21.81,250115
1964,19.22,249774
1965,19.08,219382
1966,28.86,335969
1967,20.11,246986
1968,15.37,189650
1970,23.39,289157
1971,15.28,198146
1972,15.69,202980
1974,24.26,303255
1978,17.84,231262
1979,19.19,240008
1981,19.57,240132
1982,19.9,248797
1983,18.25,230158
1985,17.64,227132
1988,16.38,207858
1989,23.88,266833
1990,17.89,224253
1991,17.56,220171
1992,18.79,228389
1993,12.61,153351
1995,19.73,236135
1997,20.11,233501
1998,7.96,97097
1999,20.68,254158
2001,20.23,250490
2002,21.61,254788
2006,19.01,226297
2007,26.48,298448
2008,15.81,185875
2009,20.29,256819
2010,16.52,205594
2012,20.19,251050
2013,13.07,170181
2014,31.65,359047
2015,18.97,212004
2016,18.32,210978
2017,13.31,170855
2018,17.58,216675
2019,24.64,311457
2020,16.32,209821
2021,23.02,265635
2023,20.12,240955
2024,14.75,195345
2026,24.73,289506
2027,18.11,214898
2028,16.17,199534
2029,20.99,252265
2033,21.74,260699
2034,17.35,212713
2035,14.36,180576
2037,16.89,220873
2038,15.26,192879
2040,21.81,251211
2041,35.72,391760
2042,17.76,215101
2044,20.47,249618
2045,15.1,189354
2047,19.55,234427
2048,19.9,253466
2051,15.6,185648
2052,18.58,234050
2053,16.93,209216
2054,18.38,218388
2055,20.8,266111
2056,19.52,243915
2057,19.57,246627
2058,22.36,279491
2059,24.74,284451
2060,20.16,239769
2061,20.4,242086
2062,11.99,157744
2063,22.2,253141
2064,20.99,246201
2065,24.22,293869
2066,30.08,321942
2067,18.03,213468
2068,19.76,239299
2071,28.66,311945
2072,18.15,220612
2073,23.42,284354
2075,17.94,230515
2077,23.44,282638
2079,22.01,262761
2080,20.38,246768
2085,19.28,236864
2087,19.83,243374
2088,23.76,278437
2089,21.84,268453
2090,22.95,272752
2092,18.48,237091
2093,21.14,261448
2094,24.29,287180
2095,27.38,305403
2098,21.87,263400
2099,22.18,253708
2101,15.34,187490
2103,16.6,209953
2107,17.29,219864
2109,16.96,207488
2110,19.12,235857
2111,20.08,242192
2112,22.46,264748
2114,23.17,279103
2116,23.84,284849
2118,19.67,246886
2120,24.87,274997
2122,19.42,246324
2123,19.22,240317
2124,18.56,229037
2125,24.68,285319
2126,33.82,367559
2129,16.63,207893
2131,20.22,249094
2132,18.71,230513
2133,24.6,285945
2134,15.91,194894
2135,16.51,200084
2136,17.35,211952
2137,24.26,306424
2138,16.72,204551
2139,9.66,120854
2140,21.28,251757
2142,23.39,258519
2144,18.8,234038
2146,21.14,265415
2147,13.58,181032
2149,12.73,157524
2150,20.34,249324
2154,20.04,249241
2157,17.83,218745
2158,17.61,207316
2160,12.54,158426
2164,27.93,333859
2165,19.81,241354
2167,10.92,138884
2168,21.57,259069
2169,21.81,258794
2170,19.94,241292
2171,21.05,270416
2173,20.19,247720
2174,18.25,231462
2175,13.11,166492
2177,15.27,190588
2178,27.55,299240
2179,14.9,190476
2181,16.26,203198
2182,18.29,211294
2183,17.3,223434
2184,19.96,240066
2185,16.11,198283
2187,13.77,171733
2190,18.05,231298
2190,18.05,231298
2191,20.4,243825
2193,19.13,238093
2194,17.01,211347
2195,22.1,268956
2196,18.59,226301
2197,19.69,233222
2198,11.7,143736
2200,19.61,238354
2201,17.77,221799
2202,18.12,218506
2203,19.13,230254
2204,20.92,251683
2205,15.68,196425
2206,16.95,205799
2207,17.85,214712
2208,25.88,297863
2209,14.74,181372
2210,13.21,165667
2213,9.55,127063
2214,23.52,260266
2215,18.76,229026
2216,18.27,229620
2217,11.6,145776
2218,17.48,222750
2219,19.73,244656
2220,19.51,245825
2221,19.37,241923
2222,19.81,244011
2223,22.62,253189
2225,23.26,275383
2226,21.08,253355
2228,18.64,227666
2229,22.13,267345
2230,18.62,229702
2232,16.97,201278
2235,22.78,269280
2236,16.15,208832
2237,22.65,282432
2238,18.2,229840
2241,33.87,369839
2242,19.22,243153
2243,33.93,367118
2244,16.4,191153
2246,24.37,296995
2247,15.14,177266
2248,17.9,227892
2249,14.78,179526
2250,23.91,274369
2251,16.86,209426
2253,26.95,320977
2254,20.52,251376
2255,20.85,262568
2256,34.36,381431
2257,16.34,204086
2258,40.76,423156
2262,38.81,402877
2263,16.48,211312
2265,17.67,223003
2266,28.45,328410
2267,21.48,251918
2268,8.76,118117
2269,23.66,274512
2270,22.93,257333
2272,17.83,231642
2273,21.33,244260
2274,19.34,238439
2277,20.74,244531
2278,20.2,262273
2280,10.44,126257
2281,18.23,226526
2282,26.67,305490
2283,18.08,222258
2284,21.33,251161
2285,20.72,261591
2286,21.63,271478
2288,24.85,283956
2289,17.76,220286
2290,16.9,208140
2291,11.21,140066
2292,20.93,251850
2295,19.92,244574
2297,10.96,135851
2298,17.64,217416
2300,15.35,194626
2302,16.77,196856
2303,16.57,210060
2305,19.01,242162
2306,21.6,268620
2308,18.28,227300
2309,18.44,229766
2313,15.62,201901
2314,16.79,199228
2315,26.19,295036
2317,20.82,251020
2319,21.26,264971
2322,25.7,305938
2323,18.95,235567
2324,21.69,277120
2325,18.28,207604
2326,12.88,153972
2327,18.34,226214
2328,19.17,247637
2329,17.24,199148
2332,14.22,181245
2333,25.35,280868
2334,19.01,214259
2336,15.36,181274
2338,22.48,262814
2339,21.44,257657
2341,44.73,486739
2342,21.13,253902
2345,18.71,232087
2346,17.61,217625
2347,15.11,185183
2348,20.06,241079
2349,19.83,248060
2350,20.92,241891
2352,18.38,222010
2353,21.68,261858
2354,20.23,250989
2355,15.56,183644
2356,15.52,194707
2357,21.82,254381
2358,18.95,224730
2359,20.01,246647
2360,18.67,232367
2361,16.85,213958
2362,16.57,201552
2363,11.37,142081
2364,12.64,158493
2365,18.22,220891
2366,21.11,248112
2367,13.59,169245
2369,18.95,226548
2371,12.02,150178
2373,21.72,261650
2374,16.17,199425
2375,18.14,230284
2376,8.94,114352
2377,20.28,253136
2379,19.92,237795
2383,20.97,256164
2385,20.53,241882
2387,20.0,224487
2389,22.68,253782
2391,20.24,246055
2393,33.99,360173
2394,22.52,259998
2395,21.8,271119
2396,23.0,261306
2400,18.44,224707
2403,20.1,249419
2404,24.17,283649
2405,14.98,187220
2406,18.61,212911
2407,17.73,230132
2411,16.04,185027
2412,17.56,223541
2413,10.98,133162
2415,31.82,349451
2416,14.44,179427
2417,19.38,231615
2419,24.21,288747
2420,14.98,184882
2421,11.56,145773
2422,21.14,257699
2423,13.07,162438
2424,10.66,139648
2426,22.27,289033
2427,23.16,288514
2428,15.26,181159
2429,18.47,223589
2430,22.01,252106
2431,17.14,215845
2433,17.72,212690
2434,18.33,234924
2435,18.07,221358
2436,19.7,226457
2437,12.08,153144
2438,20.08,245319
2439,14.09,183945
2441,19.93,240712
2442,19.65,240645
2444,24.34,275628
2445,20.75,261203
2446,14.04,172839
2447,20.43,251550
2448,15.65,200790
2449,15.59,200943
2451,19.12,234312
2453,17.4,211553
2454,22.78,274269
2455,16.03,197410
2456,14.58,183780
2458,18.94,242942
2460,16.44,211475
2462,22.46,272410
2463,18.28,210932
2465,16.46,211712
2466,16.28,200121
2468,28.36,349284
2469,22.38,279990
2470,17.22,217541
2471,9.52,124175
2474,17.42,213868
2477,18.79,232436
2481,19.74,239405
2482,22.03,262410
2483,17.64,220985
2484,19.36,228918
2485,19.83,236230
2486,14.78,186900
2487,24.62,271211
2488,19.1,212708
2490,22.26,256756
2491,18.69,234668
2492,19.71,250549
2493,28.1,314046
2494,17.61,222836
2495,16.56,187426
2496,21.5,265379
2497,16.01,191235
2498,25.66,296485
2499,16.43,203971
2502,19.29,245950
2503,18.32,225881
2504,20.32,247870
2505,19.67,243518
2506,30.68,332292
2507,18.04,225540
2509,18.92,239365
2511,23.16,264612
2513,20.25,245169
2515,21.43,271137
2517,33.83,364244
2518,18.65,228367
2519,19.38,234155
2520,20.87,250799
2522,18.2,220489
2525,20.97,258343
2526,40.34,436745
2528,27.5,302581
2530,19.03,231939
2531,22.29,270802
2534,23.06,254074
2535,19.8,237815
2537,18.5,232743
2539,15.4,193756
2540,22.19,245217
2541,18.53,235619
2544,23.36,281581
2545,20.13,246285
2546,20.72,253936
2547,18.77,241617
2548,17.49,223949
2550,17.75,221147
2551,33.34,367976
2552,21.61,270791
2553,18.27,220962
2554,20.21,246124
2555,19.42,234014
2556,12.55,156442
2557,18.51,221672
2560,21.17,263482
2561,16.26,203565
2562,18.4,225223
2563,15.95,194061
2565,25.25,287514
2571,35.02,389709
2572,21.15,236713
2573,23.08,283511
2576,22.67,253260
2577,14.28,174867
2580,10.33,122692
2582,23.69,267266
2583,12.36,158524
2583,12.52,158524
2584,19.03,236953
2585,13.61,170907
2586,17.27,207948
2587,11.77,146724
2588,29.56,326562
2591,21.08,262765
2592,20.81,250240
2600,19.46,258505
2601,26.06,318704
2602,19.82,240681
2603,23.24,275005
2604,18.88,233526
2606,19.39,242295
2607,18.04,232574
2608,20.31,230969
2610,21.16,262696
2611,19.45,239296
2614,18.53,231829
2616,26.32,284916
2617,17.19,214532
2618,25.67,286515
2619,30.73,357164
2620,21.17,258076
2621,18.5,210911
2622,19.44,243850
2624,17.67,222676
2626,16.1,198123
2627,53.01,558419
2628,17.55,220270
2629,12.4,156696
2631,20.98,245212
2632,21.7,271168
2633,17.1,225840
2634,18.83,237936
2635,18.25,219427
2636,20.12,230822
2637,11.66,148177
2638,16.87,208455
2642,12.99,160618
2644,22.51,272441
2645,16.72,207753
2646,15.35,177676
2649,16.15,199368
2650,21.3,254012
2654,18.54,231893
2655,17.02,209974
2656,15.59,197852
2657,21.96,270932
2658,20.61,258974
2659,20.08,251982
2660,25.29,290483
2661,20.9,251894
2664,43.63,458641
2665,20.33,254969
2666,19.35,239663
2667,14.32,184155
2669,17.79,216157
2672,14.71,181496
2674,28.38,311268
2677,19.21,233064
2678,25.01,288615
2679,23.14,281038
2680,20.0,233337
2681,17.89,222794
2684,30.86,332599
2685,20.18,252530
2686,21.09,255037
2687,16.52,203184
2688,13.94,183772
2690,21.68,274530
2691,17.95,226063
2692,18.55,222335
2693,23.09,268362
2694,20.89,252538
2696,20.65,244341
2697,19.16,228351
2698,16.45,211218
2699,22.31,257923
2701,17.07,213589
2702,18.21,211232
2703,12.13,158549
2704,19.25,234553
2705,20.85,241977
2706,18.14,217373
2707,21.25,250129
2708,15.95,204758
2709,14.06,174426
2710,16.4,203720
2711,25.02,289754
2712,21.57,247944
2714,20.73,253172
2715,16.33,217970
2718,21.28,255486
2719,19.86,236374
2720,17.75,227981
2721,21.04,258475
2722,17.25,215664
2723,15.85,200251
2726,18.79,224227
2727,24.36,298147
2728,17.91,232046
2729,21.41,252429
2730,18.9,228716
2734,24.62,278766
2735,35.28,367961
2736,20.17,248095
2737,12.83,162412
2738,21.73,257041
2739,25.63,286448
2741,19.69,247148
2745,17.47,207472
2747,18.7,230286
2748,14.7,182732
2749,23.51,292274
2750,15.98,194933
2751,20.15,247760
2752,25.33,283804
2753,22.23,261454
2757,18.45,237085
2758,15.5,198755
2761,17.36,226758
2762,19.39,236216
2764,16.62,206013
2765,23.26,270352
2766,23.5,265793
2767,14.1,173659
2768,19.53,237808
2770,20.25,252612
2771,16.82,193026
2772,18.62,223534
2773,11.03,139415
2774,21.0,260809
2775,9.28,122047
2776,20.58,247634
2780,15.3,184966
2781,12.12,154512
2782,18.59,223299
2783,19.54,244928
2784,15.64,204380
2785,18.26,232157
2786,17.7,221954
2787,15.53,195379
2788,21.04,272410
2790,16.82,207893
2792,28.29,343288
2793,12.66,160125
2796,20.66,245797
2798,19.19,217935
2801,18.15,234682
2802,17.9,226153
2804,27.31,300568
2805,22.76,268839
2807,16.99,207269
2808,10.79,136618
2809,16.5,197481
2811,24.36,297663
2813,16.22,205537
2815,15.78,205895
2817,17.44,209792
2818,20.15,238157
2819,22.19,268613
2821,17.9,221996
2822,21.12,257390
2824,12.65,158902
2826,31.03,342720
2827,20.45,238053
2828,13.1,158993
2829,15.87,198425
2832,23.93,292218
2834,16.98,209066
2835,16.54,207241
2836,21.79,269277
2839,20.31,253702
2840,12.44,158782
2841,18.02,228367
2843,21.77,266701
2844,20.19,244530
2845,11.65,145227
2846,24.77,294770
2848,18.74,217608
2849,19.53,221327
2850,21.33,259437
2851,17.65,218891
2852,13.2,168107
2853,17.95,218241
2854,21.32,246511
2855,20.09,251125
2856,20.18,249377
2857,18.05,228652
2858,21.31,256899
2859,25.34,272596
2863,25.46,279025
2865,20.29,236064
2867,17.3,212940
2870,15.87,205852
2871,21.02,242849
2872,18.55,227267
2873,20.11,258783
2874,21.73,261573
2875,22.43,261793
2876,20.68,260453
2877,21.3,272959
2879,18.49,213499
2880,20.1,243127
2881,17.88,226055
2882,21.89,275816
2883,16.81,207145
2884,17.41,217955
2885,20.85,252567
2886,24.32,269747
2887,14.54,182208
2889,18.89,237162
2890,35.48,364358
2891,19.45,241883
2892,20.03,244780
2896,25.84,294036
2897,20.26,249487
2898,17.96,233762
2899,17.04,211847
2900,22.19,252673
2903,21.67,266592
2904,16.42,202343
2905,12.22,157774
2906,19.6,239970
2907,17.38,222440
2908,21.74,253206
2910,20.0,252204
2911,18.83,230604
2912,19.1,237422
2913,17.14,211492
2914,24.37,317762
2915,20.53,244833
2916,20.44,251906
2921,15.59,184506
2923,20.7,249042
2925,20.49,245415
2926,20.52,261744
2931,17.07,205983
2933,19.08,237515
2934,14.37,190649
2935,21.26,258845
2936,17.28,226188
2938,20.54,251085
2940,26.2,300280
2943,26.49,295802
2945,20.2,249286
2946,23.64,283003
2947,21.15,270712
2949,23.02,285785
2950,14.85,178722
2951,21.79,257114
2954,22.73,269417
2955,20.15,246850
2956,19.2,233307
2957,20.68,253808
2959,14.19,175424
2960,15.6,180926
2961,25.91,308676
2964,24.64,280443
2967,17.12,202657
2968,9.61,124357
2969,20.33,230817
2971,15.15,182185
2972,29.48,343349
2974,18.9,227005
2976,18.63,226972
2977,17.82,214645
2978,18.95,234249
2979,12.22,158065
2980,18.67,220698
2982,22.31,261634
2983,18.58,233319
2985,22.36,273856
2986,16.03,198277
2987,19.74,244671
2988,17.25,210192
2989,11.02,138075
2990,17.31,212139
2991,20.79,257109
2992,20.35,238712
2993,23.16,270740
2994,19.54,241336
2995,17.88,230627
2996,20.79,261066
2998,17.73,205758
2999,15.56,200897
3001,26.09,302623
3002,20.3,240577
3003,20.72,262199
3004,26.55,289958
3006,18.97,234520
3008,18.83,231348
3009,20.18,249601
3011,18.6,222756
3013,25.99,286077
3015,23.93,281879
3017,14.95,185968
3018,18.23,224036
3019,18.43,225819
3021,25.34,306321
3022,19.54,228765
3023,19.01,240826
3024,16.98,211331
3025,12.98,153219
3026,29.84,335051
3027,20.8,251384
3028,22.38,266154
3030,30.76,313888
3031,15.24,191500
3032,17.37,218080
3033,17.97,230338
3034,10.49,136478
3038,17.77,214572
3039,19.14,241246
3040,19.24,235454
3040,19.4,235454
3041,19.07,237296
3042,20.24,247074
3044,21.07,249154
3045,19.64,249571
3049,21.27,263960
3050,22.71,263395
3053,27.19,333767
3054,27.04,315797
3055,18.28,233161
3057,16.64,209529
3058,12.62,158891
3059,21.96,261207
3061,25.53,306163
3062,16.72,206074
3064,18.39,229240
3067,21.06,253343
3070,13.94,167765
3072,15.5,192956
3073,22.43,263497
3075,20.46,247787
3076,15.01,194463
3079,21.74,263026
3080,18.87,231295
3081,21.73,249160
3082,13.22,174173
3084,17.91,216487
3085,19.2,232871
3086,11.54,141747
3087,10.95,141567
3088,27.69,325683
3089,19.42,238053
3090,26.57,310942
3091,25.17,284117
3091,25.41,284117
3092,26.38,296664
3096,18.2,221294
3097,35.57,377845
3098,16.64,208026
3099,22.13,275223
3101,12.94,162608
3102,21.5,255953
3104,26.17,311035
3105,12.63,164443
3106,24.83,293963
3107,15.74,200768
3108,16.95,208445
3109,22.99,245704
3110,18.2,217484
3112,21.64,259749
3113,20.48,253003
3116,27.7,307678
3118,21.48,259938
3120,16.57,195682
3121,14.19,168181
3123,20.57,254120
3126,15.08,183584
3127,23.42,284254
3128,38.75,400707
3129,17.79,195581
3130,28.14,305580
3131,13.9,175196
3132,12.42,153980
3134,16.37,206544
3135,15.26,185708
3136,22.66,253013
3137,10.43,133638
3138,21.0,256088
3139,19.13,230744
3140,24.51,302876
3141,16.98,210873
3142,18.98,226192
3144,18.83,239760
3146,21.61,257873
3147,17.38,220105
3149,18.91,229596
3152,18.54,226305
3153,20.43,243083
3154,20.09,246853
3156,18.46,239484
3158,22.99,283366
3159,20.93,244057
3161,19.35,232812
3163,18.54,225024
3163,18.79,225024
3164,21.01,259171
3165,16.56,204015
3166,32.02,348498
3169,16.71,192704
3170,15.91,199337
3171,19.18,233722
3172,25.31,294648
3173,14.79,185247
3175,18.47,233822
3176,22.69,261702
3177,24.77,307924
3178,19.89,232028
3179,36.99,367066
3180,18.59,221791
3181,21.53,246854
3183,19.3,239464
3184,18.7,240637
3185,22.34,274488
3186,21.25,255872
3187,18.72,237837
3188,18.43,232516
3191,15.47,182688
3192,16.84,212253
3193,15.74,191500
3194,16.82,207650
3195,25.07,300942
3196,8.71,117208
3197,27.14,301575
3198,13.91,172931
3201,27.73,305190
3202,10.3,131216
3203,24.83,279928
3204,18.19,231863
3205,21.53,260933
3207,19.59,243957
3208,27.41,324437
3209,17.69,218002
3210,17.59,221947
3211,20.99,249357
3212,29.16,344108
3214,20.45,239860
3215,16.85,212016
3216,12.39,155095
3217,20.99,253156
3219,19.03,232512
3220,17.37,207945
3221,17.01,212887
3224,16.52,211633
3225,19.21,235180
3226,18.99,229527
3227,23.44,282622
3228,24.59,298159
3229,20.8,259439
3230,15.31,194657
3232,17.65,220507
3233,24.38,292908
3234,19.37,233375
3235,16.75,218215
3236,14.18,175312
3237,21.61,260244
3238,18.97,239618
3241,18.53,227790
3243,7.92,96293
3245,17.31,220685
3246,21.51,248998
3247,18.39,224791
3248,18.82,237093
3249,16.6,204733
3250,18.51,225785
3251,13.75,164909
3253,26.71,299714
3254,19.86,237199
3255,22.77,266689
3256,18.62,225175
3258,22.11,266108
3259,16.7,191144
3260,18.47,225494
3261,17.12,205540
3262,19.3,238266
3264,18.72,228787
3265,19.14,247590
3266,17.87,224151
3267,11.05,146160
3269,16.35,203340
3270,15.14,187060
3271,21.54,250540
3272,18.45,229867
3273,19.71,244600
3278,17.49,208970
3279,13.11,153495
3280,19.61,248471
3282,19.62,247905
3283,15.43,194788
3284,20.19,237495
3286,18.97,228465
3287,17.82,213763
3288,20.16,253800
3290,20.18,246862
3291,21.28,245629
3292,9.53,117731
3293,18.51,225180
3295,22.77,264451
3296,25.1,280828
3298,16.23,199576
3301,18.19,216812
3302,22.03,260195
3303,22.26,261086
3306,19.42,230999
3307,10.26,128384
3310,19.74,235639
3311,19.8,258834
3312,20.32,241696
3313,17.03,212094
3314,19.57,238493
3318,11.88,148406
3319,19.38,231300
3320,22.28,266341
3322,20.17,251929
3323,24.68,296800
3324,13.04,167176
3325,16.77,221395
3326,16.46,199296
3327,15.65,192855
3328,20.09,248540
3329,12.36,153118
3330,20.59,243729
3331,20.55,256968
3332,19.16,230682
3333,15.11,188692
3334,20.84,253511
3336,9.39,123235
3337,17.96,220637
3341,20.82,249673
3342,20.44,264481
3343,15.33,199867
3344,12.93,162558
3346,20.62,256716
3347,16.93,208195
3348,22.77,268628
3349,16.53,194293
3350,15.92,200114
3353,22.25,273993
3354,16.66,195928
3356,28.67,296071
3357,17.21,213098
3358,23.83,278034
3359,23.41,285292
3361,27.63,322937
3362,19.0,224816
3363,17.79,219330
3364,35.04,374351
3367,15.68,193748
3371,26.47,288084
3372,21.9,273022
3376,20.23,240220
3377,18.36,231914
3379,15.77,198373
3382,9.74,126363
3385,17.01,212856
3386,20.82,247653
3387,19.58,236841
3388,24.26,285475
3389,29.12,329581
3390,18.83,228359
3391,20.29,255219
3392,21.07,244446
3395,19.48,239438
3398,21.04,255597
3399,17.38,211954
3400,21.59,256643
3401,19.79,241540
3403,14.67,182505
3404,18.0,225171
3405,20.48,245156
3406,18.05,224142
3408,27.62,330774
3409,24.48,278443
3411,16.35,198008
3412,17.34,210828
3414,31.26,323744
3415,18.33,231134
3416,22.51,274224
3417,15.61,189754
3418,17.73,214401
3419,21.66,251869
3420,15.86,197157
3420,15.85,197157
3421,21.41,256887
3424,24.06,266070
3425,39.59,396566
3428,17.79,213540
3429,18.82,223769
3430,18.3,227982
3431,19.55,241198
3432,25.72,314917
3433,16.31,181989
3434,20.59,239430
3435,16.08,197638
3436,14.24,177260
3438,19.22,238538
3442,21.11,240072
3443,15.04,182178
3444,21.2,248624
3445,38.64,405620
3448,29.77,353365
3450,23.11,277575
3450,23.21,277575
3451,20.87,254168
3452,22.24,274965
3454,19.48,233131
3455,29.6,344421
3456,28.27,309326
3457,17.89,212929
3458,19.18,244463
3459,23.01,251698
3460,15.57,176873
3461,19.15,235320
3465,15.81,199506
3466,17.23,216432
3467,16.3,205390
3469,15.96,200425
3470,13.8,175370
3473,21.1,243228
3474,30.07,320957
3475,9.7,119455
3476,33.15,349444
3477,25.51,303503
3480,18.45,232543
3481,15.42,184095
3482,21.28,254910
3484,15.92,197821
3485,16.1,207270
3487,16.33,210207
3489,21.92,245087
3490,12.19,147920
3491,18.8,233003
3492,15.69,193270
3493,16.83,204820
3494,18.49,225797
3496,18.2,218882
3498,15.5,185251
3499,13.0,158691
3500,19.25,240411
3503,20.52,249683
3505,27.3,311085
3506,12.74,161451
3508,23.18,278587
3509,12.84,157866
3510,12.79,165347
3511,10.79,135532
3512,20.4,252044
3513,24.85,298909
3514,22.54,269660
3516,12.16,145126
3518,16.67,205656
3519,20.96,253608
3520,15.87,196830
3522,19.56,222777
3523,22.01,270835
3524,25.22,305082
3525,14.31,189416
3526,22.36,265061
3529,19.06,237823
3530,17.57,215236
3532,14.72,188280
3536,27.37,313396
3537,17.23,209937
3538,19.68,249156
3539,10.62,124455
3542,18.72,227772
3545,11.19,141469
3546,15.43,204826
3549,19.31,232133
3551,17.04,204466
3556,39.29,412029
3557,26.36,317545
3562,19.52,249813
3563,17.61,221835
3564,18.96,232974
3566,22.79,286856
3567,18.28,223904
3569,14.81,194693
3570,11.34,141978
3571,21.23,260953
3572,16.57,198171
3574,22.94,255038
3579,20.87,245310
3584,14.74,189508
3585,18.72,228163
3586,23.32,270840
3587,21.99,255864
3587,21.67,255864
3588,27.22,300310
3589,18.82,233549
3592,15.08,189245
3593,20.9,258672
3594,12.31,153146
3596,15.42,186308
3599,18.49,229883
3600,24.13,267398
3602,45.35,495940
3604,16.25,198091
3605,19.51,242588
3606,12.94,163841
3609,17.81,212101
3610,21.39,249169
3611,17.92,216936
3613,19.46,233782
3615,23.28,263180
3616,29.68,325223
3617,22.31,254834
3618,20.53,236870
3619,18.77,235557
3621,19.02,231901
3622,18.7,215455
3623,15.07,188038
3626,21.17,258510
3628,20.38,256361
3629,14.98,190912
3630,20.6,248738
3631,19.13,234091
3633,17.91,220768
3636,19.98,248478
3638,9.43,120278
3639,20.66,257246
3640,16.63,206204
3641,22.54,288114
3643,15.85,196423
3644,17.17,209137
3646,21.63,240590
3648,25.6,289673
3652,21.06,236497
3654,18.59,227613
3656,12.88,155897
3658,19.72,244566
3659,18.68,234109
3660,16.75,202564
3662,20.49,251433
3664,17.65,218598
3665,26.29,326278
3666,20.41,244523
3667,17.89,223970
3668,14.37,181557
3670,17.68,215755
3672,22.02,262313
3673,24.94,294489
3674,22.5,250780
3677,17.71,228768
3679,25.72,318495
3680,19.01,234389
3681,17.39,221409
3683,16.92,207223
3684,19.33,240435
3685,28.64,315117
3686,47.07,495347
3688,22.99,272492
3689,27.26,323985
3691,17.84,209632
3692,17.96,210984
3693,16.98,205116
3694,16.67,204342
3695,16.1,198023
3696,17.51,211290
3697,18.14,226532
3700,12.45,157921
3701,22.25,272689
3702,16.91,209546
3703,18.12,221972
3704,17.95,222910
3705,20.12,252400
3706,20.51,259477
3707,16.78,208520
3709,22.7,243134
3710,21.68,253536
3711,15.93,198023
3712,18.51,241085
3714,22.14,260484
3719,15.38,191894
3721,19.46,226251
3723,16.56,205786
3724,16.05,190511
3725,13.96,175086
3726,21.35,252683
3727,19.7,241785
3728,11.29,146693
3729,11.09,137719
3730,21.74,265721
3731,20.97,262267
3732,18.23,228664
3733,20.55,232154
3735,19.01,229238
3736,22.9,270842
3737,19.56,245638
3739,19.46,238788
3741,21.34,253912
3743,16.09,207385
3745,21.0,244132
3747,18.31,206089
3748,16.92,205257
3751,16.63,206948
3753,20.99,245005
3754,15.2,186011
3755,23.04,263652
3755,23.16,263652
3757,18.98,234280
3759,20.36,253244
3761,20.6,253204
3762,18.93,231850
3763,26.25,322848
3764,18.36,236040
3765,19.56,238405
3766,17.95,226590
3767,22.28,268929
3768,15.06,179326
3770,20.35,258932
3773,17.67,221642
3774,25.18,300617
3775,23.4,278904
3777,18.35,223194
3778,17.79,227558
3779,32.93,347014
3781,14.31,180489
3784,17.26,216135
3785,18.06,226378
3786,15.67,194822
3787,16.78,207266
3788,22.47,283228
3789,18.73,236668
3791,21.75,249496
3792,20.05,235581
3793,18.42,226249
3795,20.42,238906
3796,19.55,243717
3799,16.7,218620
3801,19.58,239162
3803,21.76,268499
3804,27.56,289710
3805,11.11,143866
3807,18.2,223306
3810,17.13,211258
3814,17.82,223105
3815,20.28,248557
3816,13.23,160556
3819,29.65,317757
3820,29.19,327419
3821,15.83,197948
3821,15.71,197948
3822,18.08,226011
3824,24.52,285448
3827,19.62,242525
3828,18.0,226974
3829,15.98,197788
3831,23.0,278914
3832,19.47,247464
3836,18.31,227294
3837,13.95,178463
3839,19.82,229682
3841,17.59,211708
3842,20.03,241347
3843,19.13,235402
3844,18.32,213473
3845,15.73,190052
3846,24.08,300543
3849,16.27,194998
3850,15.74,181666
3853,21.53,262352
3855,17.98,220524
3857,14.07,173938
3858,16.33,207349
3859,18.87,231622
3860,19.79,237329
3861,16.32,204789
3862,29.53,333943
3863,19.45,237953
3864,18.5,229626
3869,26.06,303488
3877,23.66,294331
3878,21.74,267258
3879,19.05,240312
3880,17.64,230570
3881,17.35,214059
3883,13.5,172177
3884,23.82,305753
3887,22.43,282169
3888,19.36,242303
3889,19.73,252178
3890,20.0,240620
3891,23.19,270514
3892,26.75,299882
3893,23.62,274513
3894,23.69,289824
3898,18.39,220141
3901,14.6,181969
3902,18.02,223519
3904,19.45,242014
3905,20.3,239420
3906,16.94,202563
3908,19.08,232116
3909,23.0,279374
3911,19.86,236087
3912,29.02,315725
3914,18.48,230270
3915,12.08,152019
3916,19.49,241353
3917,21.19,248088
3918,24.75,307508
3920,17.95,221244
3923,23.14,270847
3925,19.37,243633
3927,27.75,304203
3928,19.26,238225
3929,20.51,245519
3930,18.84,237606
3931,16.5,214210
3936,19.23,230000
3940,15.37,196827
3941,15.59,183840
3943,21.36,262021
3944,20.71,246908
3945,15.56,191060
3946,24.27,272922
3947,18.11,206196
3948,19.0,229031
3950,29.29,314723
3951,17.18,213233
3953,20.63,256463
3954,16.35,200509
3955,48.01,497398
3957,37.18,383581
3959,34.35,368913
3960,17.84,222921
3960,17.95,222921
3961,8.69,111145
3963,23.85,280855
3964,18.87,232090
3965,9.42,122065
3966,19.26,229919
3970,17.19,218702
3971,18.64,234331
3972,20.0,243950
3973,18.95,232302
3974,11.88,152377
3976,18.3,230923
3977,23.5,294742
3978,9.72,118626
3980,17.59,219982
3981,8.09,103115
3982,14.8,184757
3983,19.07,230936
3984,8.44,104415
3985,18.7,237748
3988,18.07,220400
3989,19.28,237493
3992,17.14,209662
3993,12.49,153571
3994,17.47,221925
3995,8.47,103770
3996,24.15,279063
3998,10.81,134828
4001,19.45,215414
4002,18.26,220672
4003,29.92,330481
4005,20.19,235318
4006,16.68,204724
4007,16.74,201328
4008,14.82,192143
4009,18.62,218956
4013,19.84,237800
4014,20.87,253705
4015,27.18,301495
4017,18.09,217364
4018,18.73,232707
4018,18.83,232707
4019,13.52,171493
4020,19.75,236707
4021,19.99,245697
4023,21.76,262998
4024,16.74,206816
4025,13.37,167388
4027,18.19,218754
4028,20.26,248214
4029,20.87,254495
4030,19.79,225899
4031,28.08,298578
4032,11.3,145257
4034,21.24,263173
4035,23.49,273849
4036,21.45,266786
4037,15.25,193468
4040,19.46,243559
4043,19.44,235317
4044,19.42,218849
4045,16.57,212910
4046,15.33,170190
4047,18.63,232923
4048,20.39,242275
4050,9.43,126109
4051,18.29,222934
4052,14.57,181032
4055,10.17,130223
4056,9.13,119862
4057,18.57,245997
4058,11.89,145281
4059,23.05,264052
4060,23.61,264039
4061,18.53,233351
4064,13.42,164360
4065,26.55,281792
4066,20.17,246596
4067,20.59,240804
4069,17.55,211762
4070,17.19,206284
4071,18.61,232064
4074,20.3,246162
4075,19.27,236278
4076,23.36,262295
4077,17.96,231243
4079,17.65,223635
4081,19.76,234130
4082,9.29,114037
4083,16.6,205582
4084,23.53,284323
4085,19.91,241401
4086,18.05,223248
4087,12.56,153916
4088,24.6,307405
4089,27.09,316401
4091,13.31,175078
4093,20.39,253751
4094,16.13,193950
4097,15.43,195209
4098,23.64,267819
4100,21.72,265880
4102,34.66,360464
4104,17.09,216950
4105,20.23,245833
4107,15.96,203724
4108,17.88,217695
4109,21.04,248272
4110,19.8,244803
4111,9.25,119684
4112,18.02,220252
4113,16.99,216226
4114,20.72,258905
4118,14.54,185993
4120,15.43,200231
4121,20.9,238349
4123,22.09,252118
4125,17.29,222862
4126,19.53,237049
4129,18.1,219256
4130,17.35,220268
4132,10.02,131202
4135,20.61,253517
4136,14.96,186895
4137,18.96,245406
4139,14.84,194406
4140,23.7,278268
4141,40.17,429027
4143,16.36,205249
4145,20.74,251752
4147,19.27,229366
4149,17.38,208936
4151,16.43,207180
4154,19.22,249083
4155,22.85,278931
4156,17.72,218652
4158,11.04,142862
4159,15.31,179602
4160,19.98,244897
4161,20.34,247731
4162,20.34,240767
4163,16.82,204318
4164,18.3,216088
4165,20.03,253426
4166,15.24,197071
4167,25.97,299754
4168,17.54,230372
4169,19.96,254172
4174,21.34,262408
4174,21.35,262408
4176,20.39,250367
4177,17.17,216663
4178,18.96,233091
4179,19.4,235711
4180,23.44,277884
4181,15.48,197217
4182,13.78,188148
4183,22.08,256825
4185,10.22,132598
4187,22.97,270934
4189,18.82,238952
4190,28.27,344202
4192,15.93,200418
4195,11.42,149682
4196,12.05,148422
4197,18.4,226544
4198,20.99,248407
4199,17.93,221456
4201,10.94,141264
4202,24.85,302495
4203,32.92,342284
4204,17.09,209578
4205,13.52,167784
4206,20.84,248166
4207,34.68,362373
4209,19.57,242936
4211,17.36,218269
4213,22.13,251730
4215,21.97,266330
4216,15.5,193760
4217,17.45,222453
4218,22.64,267450
4219,20.18,241077
4221,14.17,175403
4222,16.77,211498
4224,19.93,244609
4226,23.06,251726
4227,26.32,308155
4229,17.64,221845
4230,29.16,338237
4231,18.89,232748
4232,20.37,250490
4233,17.78,215649
4234,18.22,231652
4235,17.75,226605
4237,12.08,149197
4238,17.38,229242
4239,17.95,219452
4242,12.12,150459
4244,17.2,211365
4245,18.01,223857
4246,21.03,251325
4247,28.55,318045
4248,16.38,196027
4249,18.09,216918
4250,10.74,138277
4251,25.5,301538
4252,21.91,270029
4253,18.44,231530
4254,12.95,162683
4255,19.05,245725
4256,20.11,243167
4257,16.16,195266
4258,15.16,178986
4259,14.24,183696
4260,17.48,219342
4261,16.97,205979
4262,19.69,240295
4263,9.24,112036
4266,26.66,321041
4267,18.65,227569
4268,22.57,267058
4269,17.74,235769
4271,24.42,273938
4272,21.57,264398
4273,9.84,124751
4275,18.43,229804
4276,18.41,228031
4278,10.37,129053
4279,26.36,306221
4280,14.48,172534
4282,23.24,292045
4283,22.54,260839
4283,22.57,260839
4284,8.84,109389
4285,15.96,206930
4286,23.39,294161
4288,11.02,139083
4289,17.49,209508
4290,17.38,211787
4291,20.38,252782
4293,18.21,224871
4295,16.35,203457
4296,27.19,312527
4297,20.66,253722
4298,26.62,301676
4298,26.96,301676
4299,19.89,259250
4300,19.8,240704
4302,21.91,261600
4303,26.73,300875
4307,12.64,153598
4308,36.31,390759
4309,15.14,178094
4311,14.82,184451
4312,22.28,263048
4313,18.61,222326
4314,20.51,245478
4315,14.81,187462
4319,24.69,305309
4319,25.03,305309
4320,17.38,222198
4321,22.33,254987
4322,10.74,133049
4323,15.91,197491
4324,19.17,238935
4326,24.96,274769
4327,21.0,254394
4329,19.62,236456
4329,19.69,236456
4331,19.71,258178
4331,19.82,258178
4332,13.24,172845
4333,19.87,230827
4335,20.42,230012
4336,19.3,235984
4338,23.82,280584
4339,15.17,185516
4340,17.85,223267
4341,20.4,233618
4342,23.22,275685
4344,16.69,211046
4346,11.31,137119
4347,30.53,337529
4348,16.38,206421
4349,18.29,226229
4350,15.39,175838
4351,21.32,257565
4352,16.0,204434
4353,15.09,183640
4354,20.83,260663
4355,21.3,260205
4356,16.95,212242
4357,9.54,120059
4358,19.46,235266
4359,21.84,265849
4360,10.48,138655
4361,23.12,270917
4362,19.56,240432
4363,19.65,246285
4364,16.15,198003
4365,14.17,182597
4366,14.44,177724
4368,16.92,212724
4369,17.69,218113
4370,18.74,236025
4371,19.24,236423
4372,21.07,254149
4374,16.8,192956
4376,12.98,163839
4377,17.72,221064
4379,18.49,230485
4380,13.53,171698
4381,27.66,308038
4382,18.34,237236
4383,20.44,247449
4384,15.86,203229
4386,20.0,248695
4387,18.83,230616
4388,18.8,238181
4389,18.33,228023
4390,15.18,189162
4391,18.06,221697
4393,21.04,251626
4394,12.41,157627
4395,13.95,179758
4396,17.36,208156
4403,22.05,259656
4404,20.27,245145
4405,12.43,154324
4406,18.23,224552
4408,22.58,270157
4409,25.5,283651
4411,16.27,190214
4412,21.5,256764
4413,18.21,235313
4416,36.09,362742
4417,17.14,214220
4418,22.43,250661
4419,27.79,323303
4420,18.31,235329
4422,21.76,277983
4423,17.59,222419
4424,20.74,243469
4425,20.52,241902
4427,16.17,188812
4429,24.31,292415
4430,22.57,271680
4432,18.45,222659
4434,12.88,159501
4435,22.2,253760
4436,19.43,236225
4437,10.85,136465
4438,20.5,252762
4439,20.75,251075
4440,18.61,222571
4441,13.16,164689
4442,18.86,231001
4443,36.64,375122
4444,18.78,230586
4445,17.74,221010
4446,20.18,253806
4449,12.43,157328
4450,19.87,245870
4451,20.72,254951
4452,16.62,206296
4453,51.92,531434
4454,12.71,158570
4455,19.96,244264
4458,18.72,231360
4459,17.08,206393
4461,19.48,241443
4468,17.8,222978
4469,20.48,244573
4471,9.49,124012
4472,13.48,178496
4473,16.4,208733
4474,14.43,181083
4475,11.78,153633
4476,13.54,156985
4477,18.3,235095
4479,18.19,221558
4481,14.49,193709
4482,18.44,225123
4484,13.17,169247
4485,31.76,345694
4487,22.93,264972
4488,19.17,245618
4489,20.15,245340
4490,26.03,277932
4492,23.16,264096
4493,9.91,128457
4494,25.49,296871
4495,18.91,240709
4496,8.15,99327
4499,17.7,226984
4500,17.75,217432
4501,18.51,230648
4503,8.61,114444
4504,16.97,199916
4505,18.76,245077
4507,17.05,214020
4508,21.7,261852
4509,18.43,231545
4510,15.13,193729
4512,16.41,209014
4514,17.84,218192
4515,20.99,253558
4516,19.02,230851
4517,17.84,229329
4519,18.47,230074
4520,22.23,257715
4523,13.75,176380
4524,20.56,249825
4525,15.13,193106
4528,17.03,217905
4529,12.69,159687
4530,13.34,168672
4531,14.91,185141
4532,18.19,230410
4533,28.55,317654
4535,33.08,357156
4536,22.28,268165
4537,19.49,245292
4539,11.5,145162
4540,20.08,244369
4541,17.99,221899
4542,18.98,236714
4543,15.8,195088
4544,21.09,272237
4545,8.45,107666
4546,14.64,181288
4547,23.17,259725
4548,17.92,230731
4549,15.38,196839
4550,27.88,308074
4551,18.3,232050
4553,16.16,199051
4554,20.65,252748
4557,20.71,244674
4558,8.5,111675
4559,17.48,215370
4560,10.12,124053
4562,17.45,211567
4564,20.83,256701
4566,24.82,294535
4567,11.59,145757
4569,20.99,259937
4572,18.11,214740
4575,19.62,233546
4577,22.15,275664
4580,17.46,198211
4582,14.17,174226
4584,18.9,221453
4585,23.6,300595
4586,30.0,335448
4587,27.08,303406
4588,30.09,330894
4591,14.95,171020
4592,18.69,237380
4593,19.96,243574
4594,19.3,226967
4595,19.9,247344
4597,25.81,297103
4600,13.12,162903
4601,20.98,253954
4602,20.65,237771
4603,19.61,231088
4605,19.28,238628
4606,8.73,108388
4607,19.91,252644
4608,18.21,233042
4609,23.75,287928
4612,21.3,271103
4614,20.48,240542
4615,23.93,293416
4617,19.89,240981
4618,23.35,266254
4619,24.48,292050
4620,18.47,230134
4621,16.72,217213
4622,16.46,204026
4623,14.42,178472
4624,22.09,273184
4625,11.1,144032
4626,16.79,210558
4627,22.49,274445
4628,22.24,261531
4629,16.57,198115
4631,21.16,244697
4635,18.53,225560
4637,23.88,275240
4638,24.74,277103
4639,22.06,243933
4640,16.88,211399
4641,17.94,216771
4643,19.47,242206
4644,17.79,228596
4645,21.34,253548
4647,24.5,292830
4648,18.88,235044
4649,14.76,184430
4650,25.02,283640
4652,22.59,268212
4655,14.78,189096
4656,16.8,213314
4659,21.43,253185
4660,20.05,240366
4661,19.4,237965
4661,19.53,237965
4662,11.45,140417
4665,18.49,224318
4665,18.52,224318
4666,18.7,232198
4667,12.87,161564
4668,21.49,244841
4669,18.08,217839
4670,20.18,239820
4672,9.69,122376
4673,24.03,283364
4674,20.41,244873
4675,21.01,250500
4676,19.09,245281
4677,17.13,212649
4678,18.26,231258
4679,21.4,259482
4680,20.98,264545
4681,19.11,233018
4684,17.35,222288
4685,22.33,265188
4686,15.64,198841
4687,18.46,234170
4688,21.15,251343
4689,18.92,240606
4690,17.95,216151
4691,16.75,205148
4692,26.92,284793
4694,10.88,136627
4696,12.59,166248
4698,17.49,215087
4699,19.59,232463
4700,22.16,263370
4701,20.16,236677
4704,17.09,219385
4706,18.02,231556
4707,22.28,263739
4707,22.1,263739
4708,16.65,198833
4709,17.2,207797
4710,15.24,192282
4711,20.58,254161
4712,16.1,209363
4713,17.8,217508
4715,21.56,248582
4716,20.36,240746
4719,18.57,227384
4720,18.58,229985
4721,12.49,157185
4722,13.6,161350
4725,18.38,242999
4727,25.08,305513
4728,26.65,299383
4729,23.45,273653
4730,16.23,205800
4731,20.4,255204
4731,20.42,255204
4732,15.61,191301
4735,16.94,211286
4736,15.91,195227
4738,21.4,250254
4740,21.96,255319
4741,10.06,124740
4743,25.16,300118
4745,18.59,229673
4745,18.66,229673
4747,16.48,201908
4748,17.53,204177
4751,16.88,212527
4752,14.64,176629
4753,16.24,206939
4754,16.62,202555
4755,22.09,257420
4756,15.76,189006
4757,17.69,215741
4758,22.23,271364
4759,22.2,253633
4760,31.5,343005
4761,20.78,249746
4762,21.93,261284
4763,19.76,233067
4764,18.29,226242
4765,15.81,185216
4766,19.8,234345
4767,18.42,232217
4769,13.77,176544
4770,18.13,227286
4772,30.33,332754
4774,17.38,225012
4775,21.36,271543
4777,23.07,262391
4779,18.15,218092
4780,18.43,224739
4782,18.51,228547
4783,22.16,266110
4784,21.86,261199
4785,21.92,277679
4786,21.04,254072
4788,14.0,185604
4789,16.53,207237
4790,16.95,210714
4791,17.3,216888
4792,17.95,220276
4793,21.61,264353
4797,20.47,234110
4800,16.01,186324
4801,15.61,201969
4802,19.39,237869
4803,21.58,258770
4804,14.41,177636
4808,21.18,262927
4810,19.71,241395
4811,15.28,177049
4812,32.79,353565
4813,8.5,112599
4814,17.47,210886
4815,19.92,244832
4817,16.6,205650
4819,23.71,280035
4820,16.67,221267
4823,15.9,206883
4824,20.67,251766
4825,18.72,229280
4826,20.44,252060
4828,10.75,136012
4829,16.76,205076
4830,10.05,129041
4832,22.28,256237
4833,19.18,229498
4834,16.27,189399
4835,17.95,223699
4836,20.01,239743
4837,19.52,237658
4838,24.2,290107
4840,14.51,179977
4841,24.52,298481
4842,16.72,209532
4843,20.08,237106
4844,18.61,233880
4845,16.88,212416
4848,16.77,212506
4849,16.88,200212
4850,21.37,246454
4851,17.24,216978
4852,21.9,261664
4853,10.78,131747
4854,18.32,232310
4856,19.23,240658
4859,24.5,291452
4860,10.61,129636
4861,11.77,149657
4862,17.93,223657
4863,19.39,234473
4864,17.23,214559
4864,17.29,214559
4865,20.37,254530
4866,34.29,361502
4867,26.28,307152
4868,24.85,306378
4869,22.11,262596
4870,18.63,225743
4871,23.34,285092
4872,20.97,252463
4874,23.86,293439
4876,19.49,242845
4877,21.51,259659
4878,40.52,406199
4879,17.03,210705
4880,18.94,236899
4881,17.15,216994
4883,21.41,254348
4884,17.65,222148
4885,23.03,271853
4887,16.69,203882
4888,25.34,279413
4889,19.63,250157
4890,15.15,187281
4891,20.51,249137
4892,17.53,222515
4894,21.08,250474
4895,10.34,137071
4897,16.25,194382
4898,17.95,228265
4899,21.24,257421
4901,18.24,220337
4902,22.42,256897
4905,21.84,261605
4907,16.56,201683
4908,18.19,218064
4909,15.18,187370
4911,18.88,233642
4912,24.49,290813
4913,20.54,249947
4915,19.24,227166
4917,16.73,204944
4918,14.64,176143
4919,19.15,236734
4920,20.43,249794
4921,11.89,152847
4922,17.86,210985
4923,20.81,259049
4924,16.57,211575
4927,19.12,241122
4928,21.4,263181
4930,27.03,311303
4931,21.83,272654
4932,18.02,223325
4933,18.08,225669
4934,18.61,228236
4935,16.77,205710
4937,21.91,270368
4939,16.88,208440
4940,21.58,255130
4942,17.76,220327
4943,18.88,234886
4944,16.7,204817
4947,16.96,204709
4948,14.89,178725
4949,34.54,380858
4951,19.12,232242
4952,21.13,264018
4954,18.37,224130
4956,16.77,210376
4957,22.74,287963
4960,24.14,284931
4961,20.45,245080
4963,21.64,267838
4964,20.45,248957
4968,17.95,218705
4971,23.3,275187
4972,12.04,153504
4973,16.53,205206
4974,23.67,285277
4975,31.53,353203
4976,19.95,245846
4978,18.62,224779
4981,22.57,263562
4985,17.85,229379
4986,17.54,229101
4987,22.43,261498
4993,20.93,255209
4995,15.31,196138
4996,22.61,261950
4997,19.76,242064
4998,11.98,151385
5000,18.94,235273
5001,21.87,248524
5002,17.05,211369
5003,13.97,180821
5004,18.27,215949
5006,26.15,297902
5007,16.71,212396
5008,16.84,202683
5009,22.2,265424
5012,18.46,225918
5015,16.19,179587
5017,16.92,204044
5019,21.5,258778
5021,24.41,307032
5022,30.64,361111
5023,16.61,213604
5028,19.22,245102
5029,22.97,270739
5032,24.82,278566
5033,23.62,285772
5035,45.18,475289
5037,17.94,220572
5038,18.76,238050
5039,20.24,243254
5040,24.91,292840
5041,20.29,237853
5042,15.16,191459
5046,19.1,231071
5047,18.34,221700
5048,15.39,193456
5049,15.87,194405
5050,22.12,263121
5051,24.53,302728
5052,12.48,156736
5052,12.54,156736
5053,14.68,184670
5054,16.75,213576
5055,19.69,241858
5056,20.99,243962
5057,18.62,223849
5059,19.06,232763
5060,14.73,190401
5061,17.97,227656
5063,32.52,338101
5064,28.38,305967
5067,16.7,210009
5068,19.98,231465
5069,19.73,235267
5071,31.05,348002
5074,43.68,439066
5075,10.86,136519
5076,16.91,216880
5079,17.95,219508
5084,14.48,190749
5088,16.57,206116
5089,12.45,156530
5091,27.03,292955
5092,40.02,407674
5093,11.41,143147
5094,19.15,235873
5095,16.93,212612
5096,21.33,264058
5097,19.97,245221
5099,18.79,234015
5100,17.4,218536
5102,18.44,230281
5103,15.7,198085
5104,18.27,228564
5105,17.62,219669
5106,30.66,351157
5107,13.09,162313
5108,11.45,139335
5110,18.09,213909
5111,23.98,286065
5112,19.05,233129
5114,17.12,221530
5116,18.4,220012
5117,19.88,238637
5118,18.76,227835
5119,20.76,250489
5121,18.25,230458
5122,15.99,205461
5124,15.43,196145
5126,19.92,250845
5127,23.62,279235
5128,17.5,212265
5129,23.72,283497
5132,15.77,189361
5133,23.51,282726
5135,23.08,270920
5139,21.32,252224
5142,17.95,225697
5144,34.0,364368
5145,21.52,257790
5146,10.12,133360
5147,21.21,265921
5148,18.62,223667
5149,23.62,291651
5151,19.49,240321
5152,31.76,340003
5153,18.16,222749
5154,22.8,276070
5155,18.17,216632
5156,18.51,228164
5157,23.39,277726
5159,17.25,212454
5160,13.55,165503
5161,19.06,221236
5164,20.4,260173
5166,19.38,227997
5167,14.27,172034
5168,13.38,160112
5169,27.49,320150
5170,20.43,244648
5171,25.48,286522
5172,18.91,224168
5173,21.2,254276
5174,40.71,425946
5176,20.17,242338
5177,17.98,220326
5178,15.99,203149
5180,18.36,214156
5181,18.52,226601
5183,15.88,198564
5184,12.93,162143
5185,14.79,186914
5186,38.45,401250
5187,17.4,211408
5188,15.33,194156
5189,21.65,256049
5190,20.3,240969
5191,20.19,252357
5193,17.32,213476
5195,9.75,126395
5196,18.93,234478
5197,10.33,129590
5199,24.19,306749
5201,20.26,254085
5204,17.86,216366
5205,21.56,261986
5206,19.55,246679
5207,20.07,258631
5208,19.44,238238
5209,16.66,217497
5211,22.56,263812
5212,21.9,266496
5213,15.09,188447
5214,13.46,168519
5215,18.84,234551
5216,17.1,215525
5217,17.52,218435
5218,18.8,231803
5219,15.56,192604
5219,15.65,192604
5220,21.69,269309
5221,25.0,318249
5222,11.78,143712
5223,17.36,204484
5225,17.84,216810
5226,16.98,213330
5227,17.5,216806
5228,11.21,148513
5229,18.59,225267
5230,19.86,229900
5232,28.08,308591
5233,12.91,159119
5234,17.25,211358
5235,20.57,252901
5238,18.25,224801
5239,16.65,202668
5240,8.84,117165
5242,16.04,194386
5243,20.4,257813
5244,19.82,244055
5246,28.38,317836
5248,14.06,185531
5249,24.92,287475
5250,16.6,211792
5251,26.95,344447
5252,22.58,254087
5253,12.51,159567
5254,20.27,238956
5256,19.5,228253
5257,17.28,220613
5259,17.08,217497
5261,25.78,277577
5263,13.43,170559
5263,13.42,170559
5264,15.66,194585
5265,21.48,264329
5266,21.87,252141
5267,20.77,256637
5268,19.24,234041
5269,20.62,265866
5270,20.33,227136
5271,14.82,183667
5272,18.76,232480
5273,25.39,307109
5275,16.67,207462
5276,21.31,258938
5278,14.9,186791
5279,15.68,190972
5280,14.97,188667
5281,20.96,239876
5282,26.0,306726
5284,12.78,161202
5285,22.64,284351
5287,17.08,214986
5289,40.72,417795
5291,18.6,226031
5292,20.47,254970
5293,18.23,232386
5294,23.6,283620
5295,19.81,251108
5297,17.4,218951
5298,20.28,243259
5301,16.9,210184
5303,10.42,134088
5304,23.43,280242
5307,17.57,203913
5308,16.27,196750
5310,18.11,223780
5311,22.66,266680
5312,19.29,243427
5314,18.69,231963
5315,21.95,243541
5317,20.0,236251
5318,15.08,181294
5319,17.25,218253
5320,24.32,299863
5321,19.31,237591
5322,16.44,204281
5324,17.56,213402
5325,24.71,300069
5326,16.19,203554
5327,15.34,184196
5329,15.54,200376
5330,17.7,225123
5334,13.17,165411
5335,21.09,268334
5336,14.36,173839
5337,20.69,269197
5339,29.13,300856
5340,18.62,228934
5341,25.55,289508
5342,17.77,219260
5345,16.29,207386
5347,18.38,223340
5350,19.53,238995
5350,19.27,238995
5351,16.65,201137
5352,17.51,223598
5353,20.85,259022
5356,22.32,268421
5358,39.92,440717
5359,20.77,245957
5360,19.39,246794
5361,24.44,288624
5365,19.49,222922
5366,23.14,279158
5367,16.39,208266
5369,18.42,226062
5370,17.43,228733
5371,18.59,224686
5373,21.98,274721
5374,17.62,221990
5375,22.58,259382
5376,24.23,287260
5377,16.1,205568
5379,16.1,205724
5381,22.19,272830
5382,20.25,237720
5384,17.16,220702
5385,19.64,243688
5386,36.22,383046
5387,18.93,235070
5388,25.24,275755
5389,15.57,195682
5390,20.2,250075
5391,19.02,232266
5392,22.28,253326
5393,18.69,233177
5395,16.28,191731
5396,17.95,227075
5397,18.52,237314
5398,15.83,192814
5399,17.24,217174
5403,16.13,200444
5404,11.27,143107
5405,17.72,220997
5407,19.24,236674
5410,18.35,226016
5411,17.13,210355
5412,19.76,239033
5413,21.4,256289
5415,23.02,275731
5416,21.39,246075
5417,16.4,207161
5418,13.01,168090
5421,28.05,327801
5423,17.62,225797
5425,16.79,202479
5427,19.61,226428
5428,16.32,204977
5429,21.86,239601
5430,19.97,230370
5433,19.43,206766
5434,14.48,180328
5435,20.49,247499
5436,22.47,267293
5437,19.44,239219
5439,29.19,313478
5440,14.55,183001
5441,20.52,241479
5445,22.4,281319
5446,17.74,212904
5447,18.94,224040
5448,20.24,239249
5449,14.94,181830
5451,17.09,204479
5453,21.21,250425
5454,18.25,223861
5455,19.82,249707
5457,22.23,272880
5459,18.94,230081
5460,16.4,208848
5462,21.98,268685
5463,22.1,265827
5465,21.25,256774
5466,13.37,168105
5466,13.29,168105
5467,14.97,179987
5468,19.7,240865
5469,8.38,112063
5470,35.63,373450
5471,22.7,269058
5472,19.83,238709
5473,25.0,275188
5474,16.46,218300
5475,21.54,256364
5476,28.23,311414
5477,15.99,197431
5479,18.48,233472
5481,19.87,247454
5482,18.65,226362
5483,17.78,223224
5484,20.89,249580
5485,19.92,247310
5487,12.82,161426
5488,11.29,146804
5491,14.47,171237
5492,18.69,228549
5494,29.38,320618
5495,21.24,256585
5496,21.58,269371
5497,22.26,259488
5498,22.15,271248
5499,21.76,260214
5502,20.87,258163
5503,24.57,297003
5505,22.62,272602
5507,15.09,197932
5508,20.43,241161
5510,18.32,216674
5511,28.26,320545
5512,19.38,234100
5513,11.45,153132
5516,20.62,257000
5517,14.65,190276
5518,38.89,422627
5519,18.72,229950
5521,19.7,243181
5522,17.04,203645
5523,21.04,256160
5524,22.05,271817
5525,23.9,286841
5527,10.98,136827
5528,15.51,190758
5529,26.99,322703
5530,16.68,195445
5531,11.95,158749
5533,10.84,139072
5534,14.28,180933
5535,21.56,275230
5536,24.43,281101
5537,20.07,251605
5539,17.05,209743
5540,24.05,282036
5543,15.15,186905
5545,16.62,204954
5546,20.7,257842
5547,17.96,218444
5548,17.19,213440
5549,20.13,248956
5551,18.61,231951
5552,18.63,237316
5553,18.26,222058
5554,17.27,215671
5556,20.52,241184
5557,21.53,272478
5558,13.81,181209
5559,18.13,228227
5560,21.17,249061
5561,11.63,143407
5562,23.8,264110
5563,16.46,208420
5564,20.52,255126
5565,17.38,215743
5566,28.14,302534
5567,36.68,394673
5569,18.41,222250
5570,17.93,222800
5571,22.18,268247
5573,30.35,332646
5575,16.42,205057
5577,15.64,191242
5578,26.48,309968
5579,24.98,287965
5580,20.56,261318
5581,17.79,220109
5582,18.36,227318
5584,15.61,191805
5585,21.0,243123
5586,14.26,185715
5587,19.37,230498
5588,23.42,284803
5590,20.36,253658
5591,22.93,253106
5595,23.53,266630
5596,30.49,328015
5597,17.35,201259
5598,24.05,285115
5599,18.58,230613
5600,23.69,282894
5601,20.38,238158
5603,18.13,223804
5604,17.65,220942
5605,18.84,232200
5606,24.03,263499
5607,21.2,240188
5608,18.41,214991
5611,18.38,216282
5612,18.32,219526
5613,18.02,226378
5614,17.63,215204
5617,17.96,224334
5618,19.93,247950
5619,20.2,254186
5620,25.63,294719
5621,17.41,215413
5622,21.79,266898
5623,17.15,219984
5624,19.12,243877
5629,18.63,220677
5632,10.53,135362
5634,20.67,257217
5635,17.17,202165
5636,21.54,267156
5637,20.43,236006
5638,27.7,303650
5639,20.16,235783
5640,18.09,232678
5640,18.22,232678
5640,18.08,232678
5641,21.67,265841
5643,18.71,220553
5646,9.54,121853
5647,19.49,241781
5648,18.75,239052
5649,15.18,184528
5650,29.45,329050
5651,19.44,232143
5652,21.09,258998
5653,17.33,219863
5654,20.62,243551
5655,27.13,321773
5656,21.77,238287
5657,18.03,228938
5658,27.78,345825
5659,9.02,112950
5661,21.67,254004
5665,19.37,249035
5667,16.92,211387
5668,19.85,245466
5669,21.02,255349
5670,18.17,223344
5671,18.08,221269
5672,17.54,211973
5674,15.45,191200
5675,15.18,186540
5676,20.83,256255
5677,21.84,260688
5678,19.37,243506
5680,20.66,251951
5682,21.09,255204
5684,22.11,249521
5687,9.44,118315
5689,16.11,194943
5691,10.27,128063
5692,19.7,230107
5693,18.62,226892
5694,15.72,195245
5695,19.58,237650
5697,22.95,274623
5698,37.38,384258
5702,21.11,251465
5703,19.34,238130
5705,16.53,212015
5707,16.48,209819
5708,19.89,241063
5709,19.91,245545
5710,19.8,245245
5711,20.38,239520
5712,23.85,266041
5713,19.71,236252
5716,29.86,349012
5718,21.49,270928
5719,22.59,261723
5722,17.04,212080
5723,15.01,189503
5724,17.96,217814
5726,18.61,230764
5727,18.88,226368
5728,22.16,265820
5730,43.6,452544
5731,14.64,194448
5732,20.85,249022
5733,20.32,237597
5734,21.75,250726
5735,21.1,243803
5736,23.32,268014
5737,19.7,249221
5739,19.53,235172
5739,19.57,235172
5740,19.58,234225
5741,18.68,230773
5743,43.28,459578
5743,43.08,459578
5745,17.98,217817
5746,16.02,195797
5747,23.88,294082
5748,20.37,248336
5751,20.63,257874
5753,21.4,257915
5754,18.68,223920
5755,20.15,255103
5756,11.78,154477
5758,22.76,273479
5759,19.99,239920
5761,20.4,242297
5762,20.88,222016
5763,17.36,218329
5764,15.38,194377
5765,17.75,222292
5766,19.55,240475
5767,15.06,184541
5768,22.34,266867
5769,22.8,266250
5770,32.69,382441
5771,19.91,238077
5773,19.04,239180
5774,26.53,315644
5776,24.3,273633
5777,23.03,264539
5778,17.51,215306
5779,18.36,224372
5780,26.36,306828
5781,41.88,437317
5785,20.72,248701
5786,19.12,222618
5788,21.68,267602
5790,15.49,196596
5791,19.16,239399
5792,15.3,191412
5793,23.06,258762
5794,28.92,316457
5795,20.8,251644
5796,20.86,239763
5797,25.11,309259
5798,10.06,122519
5800,20.44,252403
5801,21.85,272472
5802,22.54,267615
5803,21.65,252185
5804,15.12,182457
5805,17.37,225003
5806,21.01,265701
5807,19.46,244122
5808,9.25,119181
5809,25.6,315575
5811,17.31,210876
5812,21.81,261148
5813,20.49,248518
5815,19.38,239631
5816,19.16,232496
5818,21.4,262503
5819,18.66,236437
5820,18.78,219724
5821,25.04,275379
5826,23.06,267838
5827,16.24,208461
5828,16.99,204513
5830,19.24,242996
5831,17.18,217407
5832,19.18,234703
5833,18.57,233608
5834,20.01,250029
5835,23.45,265054
5836,18.22,219697
5838,18.18,220236
5839,21.6,265028
5840,17.23,214772
5841,16.34,218670
5843,21.85,258255
5844,16.98,214355
5845,19.2,226952
5846,16.47,198325
5848,20.91,258420
5849,27.03,299306
5851,21.22,263868
5853,19.91,232901
5854,20.31,254753
5855,22.63,275258
5857,15.88,209015
5858,25.14,300314
5859,18.82,229087
5860,22.69,272124
5861,19.94,249347
5862,20.86,254099
5863,9.59,126664
5864,13.37,165154
5866,18.6,228030
5867,22.46,276750
5868,20.7,248651
5870,19.75,227817
5873,18.37,228233
5875,12.32,154314
5876,16.32,185966
5879,22.07,272974
5880,21.05,253012
5881,14.81,185087
5882,21.9,263843
5884,21.49,252744
5885,18.86,230658
5886,21.57,254544
5887,20.47,239504
5888,12.28,151656
5889,18.0,224145
5890,25.07,294842
5891,18.98,234072
5892,19.99,238869
5894,20.45,260236
5896,23.08,284408
5897,27.49,318709
5899,19.05,246742
5900,27.34,308610
5901,22.05,259793
5902,19.05,237204
5904,38.96,407314
5905,9.01,108261
5906,21.14,249219
5910,11.66,149358
5913,23.07,275074
5914,22.95,261323
5915,28.22,312810
5917,20.1,249018
5918,20.22,258311
5919,20.85,249125
5920,23.21,261980
5921,20.55,254845
5923,21.78,248312
5924,22.42,246909
5925,16.84,206935
5926,38.32,397735
5927,20.01,257058
5928,13.12,159827
5929,18.47,228520
5930,25.02,276418
5931,25.14,304457
5933,13.58,175932
5934,18.59,231017
5937,43.21,433601
5938,20.39,254373
5940,18.2,231941
5942,16.67,197988
5944,21.78,262415
5945,17.82,217428
5946,17.35,222969
5949,17.83,222416
5950,26.59,327791
5952,21.44,250026
5953,15.42,184613
5954,23.85,299308
5956,20.79,231001
5957,13.62,166761
5961,9.95,130969
5965,16.73,211889
5966,7.16,85237
5967,21.77,269276
5969,9.77,120497
5970,17.68,215213
5971,19.55,234496
5973,18.85,226647
5975,20.03,227992
5976,25.15,289206
5977,17.47,207446
5978,16.77,207300
5979,17.52,208744
5981,11.67,147384
5982,20.94,271174
5983,12.49,159026
5984,22.21,275457
5985,18.54,229688
5986,18.56,234022
5988,15.14,187177
5989,20.16,242677
5991,16.52,206433
5992,13.07,166521
5994,20.45,253105
5995,13.94,167269
5996,22.43,265883
5997,35.55,385299
5998,23.66,274006
5999,16.36,202347
6000,17.86,218609
6001,21.27,243860
6006,14.02,170089
6007,21.14,240148
6009,20.82,260861
6013,20.77,247914
6014,17.94,217342
6016,16.4,190079
6018,10.7,142700
6020,18.44,226045
6021,18.1,225142
6024,26.29,281577
6027,34.33,400883
6028,17.63,209908
6030,18.6,231042
6031,31.18,336207
6032,25.4,297668
6033,17.86,219459
6035,14.64,176011
6036,19.16,238636
6037,17.7,223301
6040,16.8,215717
6043,12.96,158382
6044,22.27,281162
6045,28.66,339552
6046,23.75,275550
6047,20.12,229222
6048,21.4,254099
6050,25.46,287897
6051,13.83,172968
6052,23.5,287496
6053,16.99,209054
6055,21.28,244964
6056,17.69,226324
6059,18.88,231810
6060,21.58,274173
6061,19.41,235472
6062,17.18,210731
6063,26.23,294051
6067,19.17,231459
6069,19.12,228832
6070,20.9,248072
6071,21.33,252330
6072,25.18,281220
6075,20.46,247537
6077,20.3,243921
6078,18.45,225516
6079,20.31,243182
6080,13.3,173336
6081,22.67,255951
6082,18.79,230549
6083,23.51,284361
6085,20.95,254367
6086,15.92,202643
6087,20.81,244809
6088,24.13,283757
6089,21.43,256565
6090,21.75,247101
6091,19.13,221909
6092,12.05,148167
6093,15.29,190765
6094,22.74,293364
6095,17.09,218829
6097,18.1,210989
6098,20.59,258645
6099,18.71,238464
6100,18.31,231023
6101,19.56,247427
6102,24.73,296573
6103,15.29,192567
6105,18.47,231356
6109,19.54,234862
6110,20.94,251075
6111,16.47,207042
6111,16.37,207042
6112,13.01,167854
6113,21.51,260861
6113,21.51,260861
6116,19.38,236494
6116,19.43,236494
6117,22.31,268395
6118,15.92,204719
6120,19.85,237891
6122,26.21,274427
6124,14.95,178411
6125,20.18,254875
6129,16.83,210706
6130,12.41,158396
6131,19.06,241487
6132,19.31,237375
6135,17.19,209753
6138,17.31,216842
6140,18.13,224410
6141,18.79,236126
6142,19.33,227137
6143,15.68,191805
6144,20.52,249991
6145,18.04,230795
6147,30.57,328267
6149,16.51,201713
6150,16.43,210679
6150,16.23,210679
6151,15.15,193019
6152,17.87,216235
6153,18.6,210825
6154,16.41,201858
6155,23.92,267946
6157,22.55,261565
6160,22.71,268230
6161,17.92,223087
6162,16.67,205443
6163,17.35,201225
6164,15.68,205553
6165,19.55,245167
6167,24.63,280117
6168,18.4,218278
6169,16.11,204684
6170,18.86,231023
6172,16.58,212463
6173,24.41,279714
6174,22.31,260383
6175,7.86,104604
6176,19.07,241855
6177,20.43,249949
6179,16.41,212286
6180,14.23,172293
6181,17.72,221374
6183,27.64,337460
6185,20.11,238287
6186,19.36,225796
6187,18.36,227680
6188,14.42,182700
6190,19.04,231949
6192,18.24,227575
6194,14.25,188134
6198,14.62,172885
6199,17.43,212028
6199,17.65,212028
6201,20.75,248967
6202,17.93,219308
6206,13.5,173447
6208,20.09,247526
6209,14.21,174717
6211,18.3,226096
6212,21.86,280296
6213,21.42,264826
6214,20.83,244391
6215,23.26,280995
6218,15.33,187484
6219,13.44,165464
6223,20.95,252395
6224,20.38,253246
6225,18.57,233237
6226,19.63,245548
6228,14.31,186028
6230,23.41,280087
6231,19.51,240156
6233,20.4,253320
6236,21.8,264351
6238,10.22,130755
6238,10.21,130755
6241,17.78,211373
6242,15.41,196428
6244,19.84,230272
6247,17.25,207672
6249,18.39,235010
6250,19.22,246720
6251,20.57,253486
6253,18.3,228496
6256,15.07,189456
6258,9.45,125067
6260,19.79,233423
6261,14.7,185454
6262,28.89,326012
6263,18.1,217839
6264,14.4,178753
6266,21.51,267060
6267,10.42,133250
6268,19.12,233728
6270,18.1,214080
6271,14.33,177772
6273,20.63,253670
6274,19.5,228037
6275,19.14,236831
6277,20.43,246943
6278,17.25,208330
6279,17.99,211403
6280,22.91,283280
6281,17.57,207204
6282,17.45,218478
6283,9.22,111549
6284,15.13,176451
6286,20.23,220596
6287,17.98,215714
6288,18.06,221241
6289,12.93,160510
6290,21.93,257386
6292,18.08,225986
6293,17.59,217114
6294,25.6,294991
6295,21.99,280926
6296,19.11,229546
6298,21.68,253320
6299,25.52,302014
6301,18.3,232349
6303,26.07,290631
6304,14.08,178289
6305,18.79,222316
6306,18.39,237290
6307,23.72,281196
6308,26.55,303879
6309,21.51,247549
6310,23.03,261780
6311,17.59,210538
6312,20.28,256200
6314,16.84,203706
6315,20.21,240501
6316,18.94,226486
6316,18.88,226486
6317,15.23,183841
6318,19.98,242337
6319,16.82,198687
6320,15.48,192609
6321,15.64,193131
6322,29.1,350040
6323,21.26,258985
6325,24.81,301021
6326,18.8,227277
6327,19.76,238948
6329,15.83,194330
6330,16.89,195803
6331,18.23,205803
6332,21.33,256338
6336,23.58,270524
6337,19.98,243354
6337,19.94,243354
6340,17.05,204059
6341,19.49,228077
6342,23.62,281866
6344,17.77,226249
6345,18.16,224840
6346,18.69,223382
6347,16.55,209173
6348,18.06,220619
6349,18.35,221106
6351,13.46,169288
6352,19.79,241289
6353,17.15,204292
6354,11.11,136116
6356,38.93,400713
6357,19.08,225528
6357,18.9,225528
6358,24.72,293474
6359,16.31,209648
6360,18.65,231116
6361,19.34,244837
6363,10.72,132665
6364,27.9,312744
6365,14.91,181869
6366,19.85,233724
6367,19.74,235493
6368,15.66,194750
6371,18.66,228479
6372,21.47,248065
6375,18.54,232584
6376,25.95,285009
6377,17.27,221969
6379,20.39,240437
6380,21.12,256371
6381,26.88,312661
6382,25.12,310006
6384,22.66,273872
6385,21.68,270370
6386,20.04,236898
6388,17.27,220554
6391,15.24,190689
6392,10.12,128132
6394,23.37,270207
6397,18.15,233202
6398,11.57,149753
6399,13.32,169901
6400,23.26,268003
6402,18.94,234937
6409,16.23,205018
6413,15.89,204403
6414,17.1,204314
6416,17.97,222456
6419,22.58,269266
6420,18.61,228189
6421,35.33,363819
6424,14.91,192750
6425,22.87,283198
6427,20.01,241753
6429,11.19,134168
6430,19.75,250722
6431,21.36,253562
6432,20.16,249912
6433,19.4,238129
6434,18.6,238941
6435,18.51,232344
6437,9.17,115548
6438,16.84,205005
6439,23.36,261643
6443,18.1,228129
6443,18.0,228129
6444,18.14,222667
6445,20.48,248785
6447,17.64,217112
6448,19.38,242484
6449,17.72,221662
6450,15.07,184108
6451,16.6,211325
6455,15.84,199943
6456,25.77,275872
6456,26.06,275872
6457,27.47,310461
6458,6.21,77123
6459,25.51,298637
6461,9.76,127040
6462,20.38,255971
6464,17.59,225486
6467,20.1,235909
6468,22.91,274309
6469,16.96,210672
6470,22.29,287425
6471,22.7,275116
6472,21.48,273043
6473,19.94,243578
6474,19.45,211679
6475,21.77,271048
6476,18.25,213771
6477,19.96,238986
6479,12.33,153681
6480,18.24,226183
6483,16.39,211948
6484,18.46,213408
6487,13.29,172055
6489,29.98,356635
6492,21.52,267204
6494,21.64,247077
6495,31.55,370784
6496,16.11,195998
6499,18.92,232826
6501,22.36,281420
6502,19.64,238669
6503,25.93,313120
6504,19.86,245377
6508,21.81,257509
6509,25.06,268458
6510,18.46,238502
6511,18.15,229505
6513,18.44,230767
6514,24.86,295042
6515,19.67,249201
6516,24.07,289483
6519,20.43,244568
6522,16.31,197481
6523,21.36,262699
6524,22.11,252034
6526,22.74,285566
6527,15.5,200385
6528,20.95,260284
6529,15.65,204535
6530,17.4,210592
6531,15.56,202286
6533,26.58,312838
6533,26.6,312838
6534,15.86,200381
6534,15.85,200381
6536,19.95,221071
6537,24.42,289159
6538,16.13,199555
6539,17.55,218933
6540,18.69,238744
6545,14.58,182974
6547,18.1,218222
6548,20.75,251226
6549,20.12,239507
6550,21.91,259153
6551,26.32,287570
6553,14.11,176258
6555,23.28,284922
6557,17.74,219519
6559,19.87,241560
6560,12.24,155998
6562,16.84,200503
6563,17.87,222357
6564,14.45,182514
6565,19.95,246401
6566,25.36,288911
6567,21.61,266116
6569,20.3,261912
6571,34.91,385121
6574,18.37,231445
6575,18.52,230003
6576,16.07,207385
6578,16.88,208152
6579,20.07,244599
6579,20.05,244599
6579,20.0,244599
6581,16.09,198068
6582,21.28,235190
6585,20.41,247967
6586,13.74,165829
6587,16.22,203890
6588,21.16,258792
6589,18.82,231993
6593,13.52,172039
6594,20.85,230751
6595,16.67,205711
6596,19.28,205819
6597,37.83,410516
6598,19.57,238165
6599,21.71,255436
6602,20.84,257720
6603,17.13,205812
6604,22.03,268083
6605,12.01,154985
6607,16.8,212424
6608,22.23,272416
6609,21.92,260782
6610,13.43,163685
6611,18.06,229272
6612,19.56,234875
6613,18.7,226840
6614,19.95,245481
6615,17.57,225170
6617,11.24,146309
6617,11.16,146309
6619,16.22,203283
6620,26.19,332150
6621,20.56,247851
6626,12.92,154190
6628,15.39,188336
6629,17.17,212468
6630,18.15,223402
6631,22.64,279146
6633,15.45,181677
6634,14.33,191482
6635,17.35,220478
6635,17.39,220478
6637,20.62,248094
6639,20.29,246231
6641,16.47,208318
6642,17.06,211270
6644,40.31,427125
6646,17.62,219300
6647,22.26,273271
6652,18.51,227509
6653,19.52,241160
6654,17.3,208088
6655,17.96,228507
6656,17.47,212250
6657,24.58,289286
6658,18.24,225627
6659,24.46,297514
6659,24.16,297514
6660,19.27,237613
6661,17.51,217929
6662,19.48,244065
6663,21.72,270200
6664,18.93,226436
6665,22.39,278240
6666,12.03,151993
6668,20.22,244263
6670,34.68,349823
6674,25.73,282935
6676,18.65,227347
6677,19.41,241378
6678,18.37,240041
6679,35.3,380410
6680,16.14,199557
6681,18.21,222937
6682,22.94,289324
6683,18.75,236793
6685,17.68,216281
6686,19.52,238101
6689,18.47,232650
6690,16.26,210112
6691,24.79,295278
6692,24.67,307457
6694,23.12,275251
6695,18.24,224769
6696,11.77,147471
6697,17.36,209695
6698,19.55,235774
6700,19.73,259448
6703,12.35,157454
6704,23.44,282318
6706,20.82,251838
6707,21.3,259568
6708,17.57,210750
6710,21.88,260593
6711,28.34,325557
6713,21.85,246213
6714,16.84,202418
6715,15.71,193298
6716,15.99,194905
6718,13.13,165117
6719,20.67,234855
6720,27.93,320673
6721,20.83,259322
6725,23.48,273676
6726,15.04,188932
6727,16.01,200001
6728,15.98,202351
6729,21.49,261631
6730,12.39,158308
6731,17.79,215122
6732,19.22,242993
6732,19.24,242993
6733,16.76,205229
6734,18.38,228774
6736,25.49,285554
6737,29.97,363224
6738,22.77,273327
6739,11.02,134264
6740,16.04,206546
6741,20.61,235232
6743,22.51,253863
6744,17.15,216488
6745,20.12,248219
6746,19.21,238122
6747,8.45,104522
6748,16.11,206897
6750,18.96,241019
6751,22.3,242942
6752,18.26,224628
6753,19.02,230698
6754,16.59,210857
6755,22.3,265530
6756,21.78,244783
6757,14.82,182309
6758,14.78,187869
6759,26.37,285695
6760,19.77,244133
6762,25.07,302614
6765,25.34,273342
6766,14.35,182996
6768,11.85,144888
6769,23.5,285315
6771,15.28,193400
6773,16.22,206969
6774,28.97,328599
6775,17.43,218528
6778,11.06,143183
6779,22.59,269155
6780,21.8,259086
6781,38.27,408946
6782,17.41,211000
6783,18.4,212550
6784,19.78,239193
6785,22.75,266962
6787,25.94,294214
6788,20.72,247924
6790,15.3,187805
6792,11.65,153701
6793,17.7,225591
6795,23.74,294295
6797,17.08,204268
6799,19.05,223588
6801,19.18,221159
6804,18.09,227397
6805,15.05,195834
6806,16.99,224022
6807,13.99,171004
6808,16.26,205978
6810,19.92,246483
6811,15.42,189839
6812,21.39,241831
6813,18.43,220728
6814,15.42,192111
6815,17.75,221055
6816,15.63,198621
6817,16.66,195644
6819,18.32,229109
6823,15.22,193935
6825,17.74,229302
6827,12.86,165168
6828,17.04,209145
6829,21.26,255094
6830,19.72,242925
6832,23.45,280321
6833,17.74,220643
6834,20.36,245260
6836,20.59,237036
6837,19.4,243759
6840,21.54,278393
6842,19.41,246647
6844,9.42,117069
6845,20.56,268367
6846,13.57,170291
6848,21.97,250582
6849,17.46,220198
6853,11.51,136662
6854,19.04,228264
6855,19.32,245333
6856,23.26,280772
6858,21.78,273514
6859,17.18,208636
6859,17.14,208636
6860,15.43,197938
6861,19.58,238987
6863,27.28,308005
6864,20.52,244145
6864,20.25,244145
6865,21.56,263974
6866,20.23,256728
6867,13.73,173689
6868,21.54,258299
6869,16.26,205984
6871,15.62,187111
6873,22.08,262840
6875,7.34,94345
6876,20.83,259993
6877,23.12,279764
6877,23.21,279764
6878,20.26,242656
6879,15.23,190641
6883,24.11,296219
6884,17.0,218439
6885,11.34,141905
6886,18.29,230726
6887,20.62,246803
6888,18.57,219048
6889,17.19,212205
6891,15.7,198803
6893,25.2,296836
6894,18.24,220650
6895,11.12,138861
6898,20.4,253790
6899,18.29,227792
6900,10.56,128376
6901,33.07,352261
6902,20.81,250885
6904,20.37,251293
6905,24.61,282661
6906,18.55,219963
6907,16.85,202084
6909,19.06,236345
6911,13.72,161721
6912,16.58,210183
6914,20.38,248720
6915,16.63,201018
6916,20.23,249256
6917,15.7,198538
6918,17.74,224945
6920,48.42,503333
6921,18.99,231440
6922,24.99,295201
6924,24.51,269123
6925,20.45,256528
6927,20.77,252856
6929,17.79,209027
6932,19.39,228459
6933,16.03,207543
6934,14.46,178991
6935,21.21,251795
6936,18.54,230881
6936,18.54,230881
6937,17.49,216526
6941,20.78,248455
6941,20.78,248455
6942,20.41,254038
6943,18.74,223091
6945,20.03,241889
6946,20.61,256625
6947,17.92,217238
6949,20.08,230267
6949,20.08,230267
6950,15.83,187608
6951,20.5,248825
6952,9.43,121690
6953,19.5,239256
6954,31.88,342171
6955,15.92,198233
6957,29.51,322142
6959,16.13,201521
6961,16.1,207110
6962,17.72,209217
6963,12.64,161078
6965,13.93,162750
6967,19.48,226612
6969,20.63,226991
6970,22.76,254278
6971,19.75,246880
6972,21.31,233206
6973,19.57,241971
6974,16.02,190730
6975,14.44,181428
6975,14.61,181428
6976,29.28,320160
6977,19.58,232513
6978,34.39,350700
6979,17.69,219903
6982,15.65,189928
6983,15.01,182508
6985,23.08,270511
6986,33.38,346892
6987,19.94,239479
6988,31.6,338892
6989,18.99,233885
6992,19.88,236766
6994,19.22,219996
6995,22.05,259821
6995,22.18,259821
6996,15.54,198487
6997,17.64,212107
6998,19.74,240576
6999,23.7,269374
7000,12.75,160481
7001,16.44,203199
7002,19.93,244386
7004,21.36,260830
7006,18.09,222986
7007,19.13,227291
7008,15.05,179345
7009,20.58,252138
7012,23.96,305128
7014,24.18,281471
7015,24.61,287693
7016,18.2,218853
7017,20.93,234651
7018,16.55,210861
7019,21.05,272931
7020,25.58,282658
7021,20.6,240704
7022,16.8,203132
7023,18.06,220201
7024,24.86,288521
7025,10.95,137723
7027,17.35,199199
7029,20.25,239117
7030,15.93,202208
7031,20.67,251157
7032,20.24,259329
7034,17.96,233174
7035,21.5,250982
7036,18.24,233193
7038,20.95,249783
7039,20.84,237824
7041,26.02,295256
7042,21.49,268805
7043,21.48,264197
7044,21.62,272809
7046,15.87,206483
7046,15.93,206483
7047,22.55,276811
7048,17.9,226371
7050,35.63,370072
7051,19.5,237823
7052,19.0,239853
7053,23.36,277721
7054,19.91,231044
7056,22.15,250522
7057,20.17,235583
7058,17.76,223648
7060,18.24,225195
7061,24.48,283262
7062,19.32,234949
7064,19.31,230737
7065,23.41,298644
7066,18.45,215862
7067,24.04,272684
7068,24.73,274885
7070,20.48,245979
7073,21.63,259897
7076,9.28,124630
7078,17.97,217251
7080,22.35,267667
7081,18.54,227625
7082,14.27,184923
7083,16.43,192625
7084,12.03,153422
7085,17.11,212659
7087,28.81,312901
7089,14.65,180411
7090,20.76,263569
7092,17.33,212840
7094,17.63,216186
7095,16.44,194342
7096,17.36,210788
7097,14.83,188875
7099,21.33,241455
7099,21.32,241455
7100,16.08,199588
7101,10.51,131525
7105,11.1,138126
7106,19.97,250522
7107,19.69,246660
7108,19.17,226673
7110,18.26,237691
7111,20.8,257159
7112,13.4,167698
7113,23.95,285786
7114,17.91,208776
7116,20.37,248792
7118,12.17,151306
7120,16.18,210702
7121,8.77,110593
7124,16.54,203128
7125,20.18,249957
7127,18.77,232100
7129,14.07,159421
7130,25.25,310641
7132,19.1,229803
7133,23.87,279736
7133,24.11,279736
7134,19.93,249054
7135,21.64,262848
7136,17.51,205730
7142,18.16,234261
7144,16.19,190360
7146,10.11,130720
7148,15.3,190638
7150,29.88,352986
7152,18.57,225258
7153,17.76,217375
7154,22.81,283742
7156,18.77,235306
7157,19.06,216940
7158,22.5,254401
7159,19.97,241826
7160,20.28,252964
7162,16.88,216314
7163,22.02,279596
7164,18.12,226043
7165,15.85,201279
7167,21.18,263574
7169,17.19,225158
7170,18.11,231347
7171,11.55,144956
7173,17.42,207726
7173,17.46,207726
7175,21.94,253241
7176,22.96,275026
7178,21.97,257930
7181,16.74,210602
7182,23.19,284004
7187,23.21,279673
7187,23.25,279673
7188,11.63,145259
7191,14.19,181601
7192,15.88,198427
7193,28.37,323293
7195,39.58,434259
7196,21.37,260692
7197,20.36,251451
7198,18.64,237000
7200,15.48,187811
7201,29.95,338454
7202,24.04,285223
7205,18.76,229885
7206,20.82,249176
7207,22.0,275852
7208,18.23,228286
7209,18.29,232061
7211,22.06,276265
7212,22.66,263850
7216,16.24,199217
7217,16.86,202493
7218,18.78,229159
7219,19.04,224110
7220,24.5,290357
7221,17.98,223295
7223,12.29,152266
7224,20.31,252729
7225,19.38,233397
7226,20.45,251634
7228,19.98,236837
7228,19.92,236837
7229,16.89,191407
7230,11.69,144806
7232,25.82,299539
7233,20.92,257966
7234,17.39,209554
7235,14.09,186086
7236,14.55,179193
7237,20.56,245090
7240,19.39,241141
7241,17.07,218565
7242,26.6,325969
7243,22.23,242091
7244,13.55,162359
7245,18.23,230094
7246,20.85,246723
7248,20.54,252557
7249,18.7,223225
7251,21.24,253596
7253,15.76,198445
7254,16.55,208427
7255,20.28,231935
7258,20.44,240898
7259,22.05,255695
7260,20.89,256894
7262,17.11,211873
7263,18.3,220992
7264,10.66,136413
7265,17.62,228692
7266,24.41,300299
7266,24.55,300299
7268,21.75,254570
7269,15.79,194571
7270,10.75,137016
7271,19.76,233543
7273,15.45,176231
7274,16.6,205680
7275,15.57,186108
7276,17.17,218580
7277,20.79,253078
7278,17.43,229557
7280,15.17,185423
7281,32.74,340299
7283,20.92,266740
7285,19.89,246458
7287,11.1,146482
7288,25.73,280796
7289,12.32,150119
7291,10.07,131109
7292,17.7,225658
7293,21.09,262437
7294,19.12,233645
7295,14.8,190086
7296,19.21,245500
7299,21.99,256230
7301,19.41,247918
7302,19.65,251766
7305,23.1,267777
7306,15.83,184988
7308,26.57,304650
7310,29.96,334107
7311,21.13,252973
7312,17.54,211974
7313,16.22,199499
7314,18.21,197036
7316,16.31,207120
7317,16.34,205841
7318,18.12,213343
7321,24.35,274806
7322,18.47,219947
7323,16.36,207297
7324,26.24,301506
7325,19.01,231221
7326,18.68,242306
7327,21.06,250921
7328,23.38,288537
7329,16.49,199970
7330,20.6,244023
7331,18.33,227306
7332,16.24,192235
7333,21.13,252943
7335,14.71,187781
7336,22.71,288562
7337,37.59,393849
7338,21.77,245802
7340,20.24,239356
7340,20.38,239356
7341,14.73,184202
7342,21.48,255067
7345,24.6,300790
7346,19.76,240258
7349,16.8,201519
7350,21.98,257699
7351,32.26,354488
7352,17.17,217509
7355,11.38,148625
7356,20.37,248081
7357,20.32,239791
7358,18.49,218947
7359,17.84,223993
7361,22.91,275804
7362,20.23,237377
7364,11.61,149748
7365,21.54,255997
7366,15.92,204411
7367,23.37,262803
7369,21.99,253049
7370,18.34,231548
7372,21.67,257800
7372,21.65,257800
7373,14.56,179941
7374,19.38,240206
7375,21.6,270569
7377,21.73,274481
7378,10.92,141494
7381,9.97,121368
7382,17.51,218521
7384,21.7,249335
7385,21.73,255169
7386,11.23,142959
7390,20.21,249034
7392,16.15,196508
7393,12.17,149872
7395,18.18,222250
7396,24.3,291414
7397,21.02,246963
7398,21.63,270313
7400,19.46,246075
7402,25.64,287119
7403,13.53,164237
7404,15.48,194139
7405,19.04,233314
7407,11.37,140999
7409,13.38,160635
7410,21.41,250236
7413,19.76,243581
7415,18.75,224309
7416,15.8,196403
7417,21.09,245402
7417,21.07,245402
7418,18.84,227540
7419,18.48,221914
7420,18.11,216262
7421,19.26,227686
7422,18.22,230684
7423,39.64,434715
7424,22.53,277046
7425,10.32,125782
7427,19.94,239617
7428,16.67,211711
7428,16.66,211711
7429,15.94,197278
7431,20.7,253887
7433,18.51,227096
7437,18.04,224508
7438,19.16,236343
7439,20.9,257435
7440,18.88,232101
7440,18.91,232101
7441,20.07,234205
7442,22.31,265965
7443,23.84,292919
7445,18.24,216161
7446,30.78,322663
7448,16.3,203350
7449,26.6,304769
7452,19.9,239599
7454,17.71,214383
7455,19.19,235829
7456,12.83,160300
7458,20.82,261542
7459,27.72,300121
7462,27.62,295206
7463,21.09,230832
7465,16.18,204719
7466,11.07,141637
7467,16.1,199386
7470,30.86,318756
7472,20.92,249891
7473,19.35,240352
7474,22.04,247263
7475,17.15,212741
7476,23.41,268010
7478,20.25,249570
7479,19.08,232193
7480,21.22,251972
7481,19.69,236485
7485,20.59,243933
7486,20.23,247713
7488,8.97,118368
7489,7.25,89341
7490,19.86,231120
7494,24.7,288104
7495,9.88,128398
7495,9.83,128398
7496,24.47,282427
7497,18.54,236808
7498,25.13,298149
7499,17.43,219385
7502,21.2,256757
7503,23.33,267569
7504,19.15,228910
7506,18.16,223869
7508,21.94,265576
7509,12.3,148006
7510,17.22,213197
7511,34.85,373223
7512,16.8,217069
7514,20.05,245349
7515,18.86,231128
7516,20.74,252369
7518,22.79,284727
7519,10.99,137300
7520,19.33,238977
7521,16.35,196836
7523,21.83,273091
7524,18.57,224713
7525,24.07,287996
7526,16.89,215519
7530,18.82,229458
7531,16.22,217013
7532,22.2,282869
7533,35.53,381184
7534,25.59,283333
7535,15.63,197385
7537,19.19,227661
7538,45.64,496611
7540,15.82,204607
7541,21.81,248500
7542,20.13,242535
7542,20.21,242535
7543,22.06,272622
7544,18.38,225346
7545,21.97,255449
7546,19.83,246762
7547,14.31,178136
7548,15.4,189770
7549,22.23,245636
7551,18.17,213381
7552,20.2,240109
7553,18.56,232722
7554,30.26,321136
7555,17.7,223188
7557,15.29,188397
7558,18.3,226161
7559,15.24,194379
7560,17.93,221964
7561,21.49,263551
7563,17.74,232046
7566,21.5,269900
7568,28.15,306919
7570,19.95,245573
7571,19.75,242602
7572,18.11,216416
7573,22.17,254888
7574,18.7,239690
7576,18.51,235448
7577,16.04,206881
7578,20.89,258036
7578,20.84,258036
7579,9.39,120802
7581,14.85,187135
7583,19.21,238261
7586,24.19,269223
7591,16.98,213541
7592,14.97,191809
7593,20.68,258130
7595,11.61,145475
7596,18.07,232992
7598,21.07,252830
7599,15.59,196860
7600,21.77,264496
7601,16.99,199956
7603,18.08,215657
7604,20.46,248919
7606,18.01,226460
7609,19.78,241512
7610,20.4,244885
7611,20.86,234284
7612,20.98,248409
7614,15.34,183877
7615,10.43,127968
7617,7.5,91785
7618,17.42,200677
7619,18.54,230130
7620,13.29,171625
7623,18.93,218545
7624,19.79,253338
7624,19.67,253338
7625,21.88,257910
7626,21.79,266233
7627,18.54,229602
7627,18.69,229602
7628,15.57,191928
7631,19.65,245542
7632,17.44,212528
7634,16.48,204117
7636,16.38,196902
7637,17.99,229441
7638,22.52,270806
7643,20.41,249258
7643,20.35,249258
7644,21.07,248474
7645,14.04,171189
7646,19.81,246847
7647,14.51,180919
7650,18.89,228944
7651,23.89,259981
7652,17.82,219285
7654,17.29,212370
7655,18.54,227258
7657,22.06,263583
7658,13.58,173112
7659,22.71,274379
7660,17.65,219344
7661,17.95,229270
7663,19.08,234838
7665,32.08,340634
7666,13.32,173078
7667,18.54,232767
7668,25.05,301645
7669,16.06,198264
7670,17.4,219704
7672,26.36,280665
7673,17.83,234757
7674,14.82,189098
7675,15.3,181940
7678,15.81,201968
7679,22.92,266912
7681,30.1,323699
7684,22.34,274079
7687,14.0,167999
7689,21.96,254294
7691,13.81,175723
7692,22.65,283861
7693,10.42,129773
7694,16.21,200755
7695,21.43,262740
7699,23.11,264934
7700,25.4,275189
7701,25.54,312752
7701,25.73,312752
7702,30.0,328847
7704,21.1,247800
7705,19.97,251384
7707,13.71,161212
7708,23.5,296969
7709,27.55,332195
7710,21.21,253386
7711,21.99,250387
7712,30.16,359470
7713,17.24,220498
7714,20.49,252487
7715,18.72,224611
7716,15.89,197219
7717,14.78,179688
7718,25.04,303993
7720,18.59,224750
7721,28.73,306301
7722,18.25,227179
7726,15.6,178337
7726,15.42,178337
7727,16.86,209878
7728,25.41,277452
7729,18.79,229041
7730,20.62,242459
7731,19.44,238882
7732,16.93,208616
7733,19.31,232808
7734,19.27,232546
7735,17.86,225337
7740,18.22,219877
7742,20.26,250459
7743,22.43,274051
7744,25.65,304974
7745,23.88,276874
7746,30.23,328376
7747,19.55,228556
7748,16.7,214310
7749,15.98,198726
7750,20.5,242106
7753,21.37,255657
7754,16.84,201990
7755,22.97,268317
7756,16.18,202716
7758,18.4,230843
7760,16.61,201446
7761,20.58,261577
7762,29.98,316463
7764,8.98,119795
7765,15.53,191832
7766,21.19,261320
7767,20.78,250857
7768,11.76,151074
7769,27.78,332459
7769,28.21,332459
7771,18.88,250055
7773,21.02,256894
7774,23.48,270834
7775,22.76,274669
7779,19.23,233567
7780,13.77,185999
7781,18.8,244367
7782,15.45,186174
7783,23.8,292100
7784,17.81,225375
7785,17.79,230533
7788,19.69,251998
7790,19.48,239700
7793,19.35,233698
7794,22.55,280746
7795,16.92,209453
7796,18.4,208322
7797,18.03,221012
7799,18.4,222543
7802,11.98,149817
7804,18.05,212580
7805,19.09,229028
7808,23.37,272144
7811,24.23,294061
7812,18.71,221663
7815,19.0,238573
7816,14.43,184606
7817,18.06,218106
7818,18.35,215039
7819,22.04,265285
7821,20.04,256634
7822,18.5,221947
7823,23.46,260717
7824,17.27,211919
7825,21.04,269412
7826,26.66,288039
7827,16.36,206368
7828,18.76,237699
7829,21.96,272973
7830,53.01,554809
7832,28.96,323930
7834,18.58,224528
7836,20.41,246035
7837,19.11,237959
7839,15.88,202225
7840,18.34,229109
7841,9.68,128432
7842,18.96,218588
7844,15.21,190357
7845,16.26,200291
7846,18.43,231236
7847,15.32,194101
7848,15.69,189700
7849,15.82,191579
7849,15.86,191579
7850,24.62,298022
7851,20.73,258623
7852,18.11,219661
7853,17.07,209920
7854,26.73,297446
7856,12.19,156423
7857,25.21,291616
7859,14.58,178054
7861,18.0,223617
7862,20.9,251839
7863,21.69,249973
7866,17.93,221771
7868,18.47,228308
7869,17.08,205535
7873,20.71,256991
7875,15.73,199413
7877,19.44,250691
7882,23.51,293461
7885,19.67,236071
7885,19.54,236071
7886,20.3,263278
7887,15.78,199243
7888,22.93,285407
7890,18.86,231209
7892,17.93,224477
7893,18.04,225633
7895,18.73,229038
7896,20.64,253791
7899,17.04,212637
7900,20.32,249229
7901,17.43,212201
7903,19.14,254308
7904,18.83,226066
7907,13.47,168628
7909,20.29,240263
7910,17.51,205678
7911,21.84,250079
7912,19.26,237121
7914,15.99,185366
7915,18.45,225400
7916,17.92,221163
7918,20.83,248328
7919,16.81,197353
7920,20.38,248836
7921,38.72,415163
7922,23.92,283921
7923,19.84,253000
7924,19.62,239900
7928,20.27,244866
7929,23.44,281112
7930,21.62,273148
7931,19.52,228901
7932,11.19,139724
7933,28.0,327741
7935,17.24,216667
7936,16.53,207921
7937,18.67,236002
7941,25.63,296542
7942,17.99,219997
7943,20.21,244221
7944,18.16,221032
7946,22.37,267602
7947,14.24,180561
7949,14.6,177622
7953,16.76,209192
7954,14.67,192805
7956,20.32,252395
7957,24.09,285815
7958,19.84,231369
7959,19.8,240029
7962,20.2,237329
7963,21.09,259793
7965,21.15,268409
7966,16.68,207845
7968,16.71,206308
7971,18.63,230420
7973,18.83,237416
7974,18.5,225706
7975,17.32,210284
7977,21.81,254107
7978,29.83,320124
7979,16.2,193844
7980,21.94,271387
7981,25.33,292088
7983,15.54,197054
7985,18.48,224174
7986,17.93,228523
7987,17.1,218212
7988,20.4,261007
7989,22.85,267783
7992,24.69,266552
7993,21.07,255036
7995,20.39,255077
7996,10.97,140923
7997,13.39,162762
7999,19.77,239065
8000,17.47,217001
8002,18.6,215616
8003,22.76,271868
8004,11.05,140749
8005,23.18,269777
8007,14.38,173027
8008,13.89,172397
8009,18.33,228965
8010,17.41,212832
8011,16.95,211116
8012,21.16,266806
8017,15.88,193410
8017,15.97,193410
8019,17.74,216572
8023,18.02,235260
8024,20.16,252163
8025,20.46,257034
8026,18.93,228536
8027,26.73,296456
8027,26.42,296456
8028,20.74,244742
8031,25.42,273286
8032,20.69,269063
8033,16.57,210322
8034,20.61,262426
8035,13.6,162448
8036,18.76,234967
8037,17.12,208137
8037,17.38,208137
8040,7.29,92316
8042,21.61,251974
8045,19.94,238200
8046,22.54,279217
8048,19.35,243850
8050,23.27,275328
8051,14.41,170456
8052,19.2,223488
8053,17.11,214230
8054,16.08,195488
8056,21.35,253200
8057,21.23,264313
8058,21.55,262606
8059,18.79,234059
8060,24.73,283956
8061,12.87,159224
8064,19.15,235377
8065,20.72,240733
8066,21.56,267005
8067,20.26,254378
8069,30.41,340341
8070,11.3,146793
8071,18.13,222927
8072,17.59,222809
8073,20.92,248481
8074,18.27,220585
8075,17.41,227589
8076,18.33,225612
8077,21.32,262800
8078,20.85,247961
8079,17.74,220050
8082,11.07,137565
8083,17.1,212466
8084,19.48,231475
8085,15.16,181863
8086,19.26,244596
8087,12.0,139141
8088,23.91,265462
8089,22.86,270403
8092,17.52,214037
8093,16.11,203980
8095,21.42,251779
8096,18.57,220800
8102,19.97,246331
8105,17.63,231866
8106,11.15,142005
8107,16.91,211648
8108,19.19,236856
8109,15.19,180117
8111,24.73,266707
8112,21.69,251881
8114,18.66,235700
8115,16.82,203206
8118,19.12,215134
8119,16.9,201254
8120,23.79,289276
8120,23.8,289276
8121,22.83,277597
8122,24.0,288034
8124,25.35,299820
8125,22.33,257794
8126,28.07,336620
8127,40.0,407385
8128,15.48,190064
8129,16.71,204847
8130,27.16,316318
8131,17.05,212783
8132,20.18,254184
8134,18.75,231838
8139,22.09,255479
8140,17.69,232294
8143,20.11,242895
8144,22.24,249021
8145,18.75,228240
8146,27.01,314063
8148,24.58,293803
8149,13.63,168702
8152,25.93,286215
8153,16.49,209198
8154,17.95,216122
8155,12.02,149863
8156,18.69,240064
8157,22.26,262827
8158,32.28,347231
8159,18.86,233063
8160,17.23,212735
8161,18.01,223075
8164,10.42,130876
8165,18.13,234136
8166,20.65,256733
8168,15.87,203912
8172,20.47,249724
8173,18.42,223607
8174,19.29,238699
8175,12.29,160318
8176,17.08,218740
8177,17.62,219050
8178,16.26,195092
8179,14.03,167568
8180,11.36,150889
8182,20.09,244566
8183,27.19,293990
8184,17.53,218293
8186,21.79,250274
8188,21.37,233636
8190,19.18,231116
8191,18.34,226165
8193,20.68,244514
8194,18.48,214976
8195,16.9,203811
8195,16.95,203811
8196,13.83,155359
8197,16.1,207882
8198,15.51,190983
8200,21.43,251861
8201,18.72,224448
8202,20.64,247814
8204,23.82,269163
8208,23.07,261475
8210,22.84,267570
8213,16.82,199087
8214,13.08,162179
8215,22.16,269206
8220,23.05,278603
8221,33.2,358743
8222,19.12,234603
8224,25.33,290476
8226,24.18,287746
8227,17.43,225870
8227,17.37,225870
8228,14.88,191569
8229,18.83,224579
8231,20.44,235166
8232,21.72,262118
8234,9.42,116770
8235,18.59,235945
8237,20.79,252184
8238,15.53,183354
8239,23.21,261305
8240,29.15,317266
8241,20.08,237792
8242,30.42,324648
8245,17.07,211004
8246,24.65,276420
8247,21.67,259475
8248,18.83,236070
8250,16.09,200377
8251,23.38,271074
8252,22.77,282436
8253,13.77,175581
8255,16.29,200978
8257,14.52,188640
8258,15.69,199367
8260,27.21,293513
8261,21.36,264332
8262,21.29,261397
8264,21.33,249978
8266,22.08,267013
8267,25.95,288143
8269,12.7,157739
8270,20.05,247164
8271,20.78,248744
8272,24.69,294028
8275,19.95,242479
8276,17.87,212002
8277,19.36,243722
8278,22.35,281012
8280,9.47,123189
8281,14.63,188045
8282,18.96,235124
8287,17.98,220667
8288,22.21,251591
8291,19.47,245113
8293,16.94,188906
8294,25.55,301951
8294,25.53,301951
8295,40.82,434363
8297,24.31,280935
8299,18.37,224862
8302,16.09,199105
8303,25.07,287127
8305,15.67,184521
8306,17.85,218636
8311,24.67,285386
8311,24.46,285386
8312,22.25,268918
8313,15.94,202952
8315,25.87,298105
8316,19.24,231411
8316,19.04,231411
8317,13.93,172398
8319,5.98,79182
8321,21.69,259216
8322,18.54,213134
8324,23.75,263921
8325,16.7,208978
8326,19.34,232109
8327,21.23,254381
8328,25.6,321288
8329,23.7,261648
8330,17.32,215671
8331,22.78,294248
8332,20.15,242276
8333,16.19,203602
8334,17.53,225314
8336,18.02,216276
8337,20.48,249801
8338,19.17,232435
8339,27.77,332149
8340,17.88,221713
8341,21.72,238280
8342,21.44,273381
8343,24.55,284744
8344,17.91,220052
8345,19.81,244771
8345,19.85,244771
8347,23.25,286683
8349,21.41,261289
8352,21.39,243286
8353,16.3,201797
8354,21.98,258429
8355,19.3,236733
8356,19.09,243220
8357,19.67,246629
8359,18.78,231170
8362,17.63,217968
8363,7.79,98293
8365,19.04,232736
8367,19.44,235452
8368,21.36,253222
8369,22.63,277375
8370,22.23,257052
8373,21.07,253626
8374,22.08,262962
8375,22.0,258095
8379,19.32,248492
8382,17.21,213737
8383,9.35,120198
8384,17.0,209457
8385,19.86,235683
8389,24.01,292080
8390,52.26,554533
8392,19.78,245030
8393,15.55,193043
8394,21.99,274456
8395,21.21,252132
8396,20.55,251158
8398,20.0,238521
8399,18.66,233549
8400,19.13,240780
8402,16.6,203756
8403,22.66,273406
8404,20.36,251679
8405,19.79,255413
8407,18.77,236543
8408,9.61,127956
8409,17.66,224008
8410,22.04,267654
8411,9.81,124330
8412,17.07,212395
8415,22.79,271393
8416,19.54,254050
8417,19.33,235044
8418,19.43,239467
8420,15.65,198856
8421,11.53,146200
8422,19.65,234316
8425,21.93,264747
8426,17.11,210239
8428,21.91,271528
8429,22.71,263422
8431,18.99,208521
8434,21.05,252786
8435,13.03,163724
8436,20.46,256817
8437,17.3,211614
8438,18.38,216711
8439,15.51,200006
8440,10.25,128814
8442,9.94,128765
8446,15.74,196157
8447,25.76,310577
8448,21.11,258390
8450,14.37,177786
8451,23.27,268071
8453,13.6,176053
8454,18.05,219747
8455,13.53,171860
8456,19.21,237731
8457,11.96,152630
8459,21.49,270838
8460,19.41,234700
8463,22.58,251058
8464,17.85,223794
8465,18.37,237579
8466,12.55,154971
8467,17.64,215892
8469,16.01,202725
8470,20.08,240956
8473,17.45,219834
8474,19.59,242770
8475,19.79,246621
8476,21.37,251210
8478,17.99,219483
8479,17.62,203807
8481,9.24,115574
8482,22.44,255303
8483,15.89,196697
8484,17.78,234833
8486,21.76,255220
8487,26.66,297466
8489,13.61,171796
8491,14.79,174520
8492,24.19,268720
8493,8.66,105442
8493,8.7,105442
8494,21.08,249410
8495,24.21,290933
8497,19.68,240813
8497,19.49,240813
8499,18.12,223989
8500,18.89,234930
8501,18.99,229138
8503,18.6,224195
8505,16.55,194266
8506,15.1,179417
8507,18.9,229156
8508,19.14,237314
8510,18.03,220499
8512,10.78,129249
8513,14.37,180436
8515,21.47,261845
8516,17.24,218098
8517,14.1,176092
8518,17.12,217419
8519,12.86,151409
8520,16.26,209673
8522,15.27,184791
8523,16.58,210547
8524,30.94,333487
8526,15.57,184116
8527,19.07,232387
8528,17.79,226005
8529,17.46,214474
8531,18.52,234546
8533,16.34,204929
8534,22.57,253818
8535,20.24,242295
8536,22.77,278651
8539,17.35,215347
8540,21.52,259066
8541,23.53,292013
8542,16.19,204566
8543,12.14,165814
8544,24.09,273860
8546,19.81,244125
8546,19.9,244125
8547,17.99,225610
8548,17.08,210128
8551,22.73,287965
8554,22.58,272081
8556,17.89,222233
8557,22.81,276716
8558,16.42,213044
8559,10.6,135752
8560,21.47,256097
8562,19.3,238086
8563,24.82,275153
8564,26.48,294907
8565,33.76,371797
8566,18.09,215942
8567,12.42,151580
8568,16.25,201556
8569,18.44,214777
8570,10.98,136078
8571,19.67,240893
8573,21.39,253667
8574,21.31,260603
8575,16.68,206616
8575,16.55,206616
8576,19.0,239808
8577,15.69,188049
8578,24.99,303515
8579,25.66,291199
8580,19.59,230196
8581,20.8,241822
8582,19.93,240758
8583,14.79,186356
8584,20.63,266240
8587,20.13,231965
8590,19.65,241539
8591,19.18,240122
8592,15.15,196180
8593,20.02,266975
8593,20.03,266975
8594,26.52,287727
8596,18.33,220374
8597,18.63,236787
8598,17.35,210302
8599,18.44,228425
8600,11.13,141186
8602,20.04,236075
8603,23.38,273992
8604,28.11,333201
8605,18.25,219710
8606,12.28,159207
8607,16.12,202590
8609,15.38,185224
8610,18.45,235665
8611,17.63,219921
8612,20.14,259464
8614,21.41,258698
8615,18.61,222344
8616,18.38,227169
8618,17.43,212409
8619,19.05,239776
8620,25.0,290888
8622,25.03,288781
8623,24.12,273327
8624,19.37,231556
8625,17.8,219439
8627,8.68,109618
8627,8.74,109618
8629,21.22,246916
8630,19.07,233968
8631,23.07,263840
8632,13.12,167918
8632,13.09,167918
8633,20.07,254204
8634,15.13,195346
8634,15.16,195346
8637,46.18,481931
8639,20.71,238759
8640,19.63,225300
8641,19.9,242659
8642,26.51,308709
8643,19.02,235406
8644,22.13,262463
8645,18.4,211139
8646,20.26,236330
8647,22.82,278432
8650,15.52,201700
8650,15.71,201700
8651,13.94,180078
8652,21.16,249243
8653,20.23,243528
8655,15.52,195421
8656,27.69,337104
8657,22.67,268241
8660,20.68,268341
8662,22.94,270162
8664,16.14,184921
8665,18.38,227526
8666,22.18,260048
8668,30.94,360269
8669,19.15,225704
8670,25.45,299967
8672,17.05,218347
8675,23.37,259166
8676,17.07,204865
8677,20.49,247454
8678,12.54,163415
8679,18.47,235815
8680,18.62,243089
8683,21.24,258930
8684,20.45,243450
8686,21.26,257454
8687,34.34,369068
8690,18.77,229247
8690,18.59,229247
8694,21.28,249640
8695,23.74,278475
8696,24.56,289088
8698,17.62,215274
8699,14.1,167446
8700,19.26,244723
8702,17.51,218575
8703,17.62,221840
8704,14.58,182825
8707,20.39,256448
8708,12.51,162342
8711,14.26,180798
8713,22.2,270253
8714,22.82,269575
8715,16.78,201321
8717,19.78,239254
8719,19.51,235581
8720,17.34,210248
8721,22.08,263741
8722,20.37,234902
8723,24.88,295981
8726,23.57,285914
8728,16.84,196832
8729,15.83,196059
8731,21.06,248330
8732,21.14,269837
8733,16.42,203165
8734,20.06,240531
8736,15.66,194843
8737,20.64,243439
8740,14.59,175269
8741,16.83,210364
8742,16.84,214333
8743,17.84,219435
8744,20.14,254726
8745,22.82,276840
8747,15.81,197032
8749,14.78,188581
8750,18.06,225204
8751,14.06,179059
8752,20.8,250946
8754,21.12,266531
8756,23.0,266667
8757,19.49,240508
8758,21.01,255538
8759,21.22,254441
8760,21.96,258858
8762,18.69,231693
8765,17.2,206619
8766,18.72,235113
8767,15.49,188471
8770,22.16,252793
8772,19.89,250651
8774,15.93,194722
8777,21.29,264720
8778,23.59,279778
8779,16.34,193256
8780,20.39,255086
8781,17.6,211396
8782,20.6,244340
8783,23.1,274721
8785,25.57,280484
8785,25.49,280484
8786,21.82,257254
8788,19.45,249532
8789,17.35,212461
8790,21.76,268234
8793,20.36,239050
8796,17.93,226206
8797,18.95,244507
8798,21.29,255335
8799,19.86,259930
8800,11.1,143204
8801,20.99,248330
8802,15.15,186656
8803,7.0,86230
8804,19.08,231426
8805,34.06,353400
8806,21.96,260248
8807,18.88,229158
8808,16.51,207153
8810,17.55,225418
8811,18.98,227487
8812,24.91,288817
8813,17.51,217488
8814,18.23,225845
8815,17.57,218526
8818,20.26,249388
8819,18.43,226591
8820,20.58,259095
8824,21.74,270681
8825,16.24,199909
8826,16.98,210149
8828,21.82,244396
8829,20.66,252207
8832,21.42,265751
8834,16.35,220035
8835,17.52,226047
8836,21.01,250760
8837,16.51,197818
8838,21.26,255983
8839,16.14,203143
8839,16.18,203143
8842,19.65,237581
8843,19.64,243560
8844,21.85,266291
8845,17.31,210145
8847,30.35,369727
8847,30.5,369727
8849,15.04,179544
8851,23.22,277050
8852,37.29,410406
8853,12.41,161567
8854,18.02,220392
8855,22.44,278120
8856,25.44,300172
8857,13.67,178254
8858,21.67,259447
8859,17.06,217131
8860,26.35,275016
8861,21.12,249276
8863,8.27,106627
8866,20.51,259663
8867,17.75,218279
8868,16.2,200983
8869,9.55,122296
8870,20.13,246994
8872,12.01,142143
8873,18.32,229513
8874,17.6,214501
8875,20.91,240859
8876,20.02,238416
8877,19.62,240534
8881,15.99,206470
8882,32.65,373064
8883,18.05,224396
8884,15.17,188491
8887,16.89,206069
8888,19.27,230908
8889,17.35,211227
8890,19.65,233840
8892,13.33,169139
8893,21.27,262436
8894,21.38,249366
8895,17.87,205280
8896,20.8,252049
8897,18.73,236881
8898,18.45,224502
8898,18.27,224502
8899,8.04,102729
8900,13.66,164601
8901,9.39,117435
8902,21.45,265339
8903,21.57,250576
8904,28.19,303524
8906,22.84,267486
8907,14.17,174886
8908,18.23,215857
8911,21.0,258591
8914,18.76,233951
8915,18.18,232957
8916,15.53,196837
8917,17.44,216720
8918,14.48,178853
8920,12.82,160049
8922,21.45,245557
8923,18.7,223499
8924,19.15,232837
8925,18.36,238255
8926,20.31,253418
8928,23.72,288350
8929,16.19,203567
8930,19.38,227007
8931,22.91,270435
8933,21.63,276449
8934,22.94,260452
8935,16.86,210467
8937,25.25,284862
8938,16.14,203357
8941,15.45,191874
8942,20.51,252063
8944,21.66,248622
8945,20.1,247118
8946,16.38,198373
8947,25.48,305150
8948,41.8,428000
8949,15.4,197154
8950,18.95,228348
8952,21.15,261638
8953,17.47,208236
8954,23.29,278811
8955,20.64,253375
8956,15.9,175537
8957,18.32,227377
8958,18.52,232488
8960,15.87,194667
8962,38.78,402719
8963,18.89,238130
8964,38.06,408123
8966,21.23,262374
8967,22.14,265362
8968,19.51,252842
8969,17.41,219165
8970,23.47,284483
8971,21.35,248486
8972,21.18,249890
8973,25.22,264331
8976,21.11,260687
8977,25.76,294078
8982,23.1,272617
8983,18.03,213564
8984,17.35,211829
8985,20.29,245928
8988,15.85,199459
8989,22.91,271005
8990,22.37,257686
8992,25.65,296682
8993,17.1,204786
8994,14.9,181072
8995,18.48,223546
8996,8.67,103754
8997,19.97,231025
8998,17.02,212074
8999,15.74,198772
9000,26.35,312886
9001,20.39,237327
9002,27.72,319351
9004,18.39,222656
9005,20.61,252067
9006,20.04,253622
9009,22.68,275110
9011,27.28,302786
9013,18.48,240781
9015,20.41,253201
9017,19.59,240372
9018,17.58,215076
9019,17.97,209358
9020,23.55,259209
9022,15.58,183789
9023,24.75,283753
9024,14.62,183158
9025,12.62,162095
9026,15.11,182235
9027,20.31,259892
9028,21.2,244206
9029,18.2,217065
9030,37.71,401164
9031,60.45,644763
9032,30.12,316861
9035,18.92,242435
9036,22.57,267569
9039,25.96,320170
9040,16.83,213724
9041,22.13,261762
9042,17.64,225850
9043,18.38,213998
9044,19.11,221607
9046,20.85,251355
9047,19.0,234478
9050,20.44,240990
9051,26.47,287711
9052,17.78,202506
9053,19.88,230041
9055,29.54,325038
9056,14.86,188130
9057,13.18,157456
9060,19.94,246250
9061,18.55,223467
9063,17.78,220206
9065,23.66,292742
9066,16.89,213647
9068,16.18,198804
9069,21.25,250224
9070,18.2,209313
9071,21.14,260911
9074,19.75,249865
9077,21.53,262963
9078,15.93,206239
9079,17.71,218405
9080,23.35,277224
9082,19.02,239448
9083,18.37,229495
9085,15.81,195935
9086,15.86,205375
9088,15.2,191349
9089,23.81,277663
9091,18.89,233659
9092,20.37,247707
9093,18.58,229594
9095,21.08,259430
9096,13.14,165069
9097,20.79,249620
9100,26.51,290820
9101,18.68,226778
9102,55.98,574478
9104,21.49,252319
9105,26.02,298783
9107,19.65,240398
9108,15.85,197113
9109,18.92,230414
9110,22.08,287559
9111,22.09,270112
9113,25.69,313887
9117,19.93,237759
9118,22.9,273567
9123,17.29,213565
9125,20.5,253564
9126,21.11,248262
9127,18.01,226233
9128,18.67,224531
9129,17.18,214324
9131,17.13,214356
9132,19.59,232066
9133,16.91,204193
9135,37.87,394444
9137,11.7,148886
9138,18.69,232717
9139,17.3,217608
9140,19.52,240918
9142,24.09,293208
9143,31.62,331806
9144,14.96,181416
9145,17.48,223955
9146,18.67,209271
9147,26.07,291814
9148,32.16,365488
9149,26.04,311652
9150,18.78,235708
9152,16.23,200724
9153,17.13,216811
9153,17.27,216811
9154,16.47,204085
9155,17.31,214157
9158,20.09,246927
9159,23.05,266774
9160,29.01,344323
9161,17.68,222479
9164,20.24,242135
9165,16.36,199493
9166,16.43,204146
9166,16.49,204146
9167,20.47,239414
9168,23.28,282324
9170,17.88,225205
9171,22.26,253890
9171,22.3,253890
9172,22.08,256845
9173,13.33,168175
9174,19.15,230578
9176,20.5,249898
9178,7.13,94374
9179,18.79,236640
9180,15.44,195397
9182,25.06,297138
9183,18.43,227677
9184,16.07,198949
9185,16.5,210692
9186,18.53,218045
9187,15.97,198053
9188,17.43,226782
9189,13.02,163658
9190,11.08,138598
9192,21.79,273416
9193,25.68,295666
9194,18.99,244670
9195,19.71,245430
9198,18.23,226938
9199,19.53,234542
9200,26.36,291538
9203,14.41,183072
9204,20.72,259095
9205,18.18,227321
9205,18.06,227321
9206,13.58,171019
9207,19.1,231806
9209,18.25,229781
9210,16.89,203936
9210,16.83,203936
9211,22.15,251316
9212,18.07,230625
9213,19.81,242735
9214,20.94,248135
9216,17.64,225732
9217,20.18,258404
9218,17.85,226438
9219,18.55,229324
9220,17.15,214531
9221,22.35,281523
9222,20.36,235398
9223,18.1,222122
9224,31.11,339232
9225,14.69,188852
9227,28.16,298550
9228,16.87,218396
9229,22.54,256635
9230,18.2,220520
9231,18.15,231854
9232,22.54,263155
9234,21.43,264414
9235,19.15,222595
9236,13.63,177283
9237,22.76,267409
9237,23.1,267409
9238,21.15,257790
9240,23.05,259123
9240,23.16,259123
9241,48.78,500843
9242,21.7,266838
9243,10.24,134431
9244,20.87,251671
9245,19.23,233329
9246,16.28,202009
9247,46.33,507857
9248,21.66,264811
9249,12.53,161330
9250,17.29,215535
9251,24.64,279938
9252,18.59,229041
9254,18.5,227152
9255,22.03,236977
9257,18.52,228382
9258,20.8,260772
9259,23.3,280752
9262,15.78,205081
9266,20.69,246858
9267,16.68,202628
9268,16.21,182001
9269,15.94,207701
9270,15.97,198274
9271,17.23,205881
9272,15.33,195676
9274,24.68,287980
9275,21.71,252772
9276,18.94,216910
9277,21.01,234722
9278,26.56,310316
9280,20.34,231260
9281,19.54,225301
9282,24.03,301531
9283,24.22,285167
9284,23.2,257573
9285,17.49,217943
9286,10.08,126541
9287,19.9,255247
9287,19.9,255247
9288,21.62,240431
9289,27.96,333957
9290,19.37,247969
9291,16.2,201938
9292,20.51,256121
9293,17.51,208489
9295,19.52,245285
9296,17.15,215831
9297,19.7,223487
9298,19.3,241825
9299,19.06,245832
9300,15.68,186310
9301,21.21,250406
9303,18.64,219105
9304,15.21,176945
9306,21.48,251920
9307,18.99,223193
9309,20.17,239845
9310,17.8,210818
9311,16.82,208937
9312,23.37,281980
9315,19.32,232488
9316,20.41,232048
9317,22.96,265100
9321,19.7,236021
9322,17.57,218544
9323,23.29,281491
9324,17.35,207491
9325,20.66,252254
9326,18.04,215229
9326,17.81,215229
9327,13.29,163187
9329,18.41,236958
9330,18.76,239703
9331,14.46,176875
9334,20.83,253126
9336,16.57,207563
9338,15.32,188463
9340,18.42,229626
9340,18.53,229626
9343,25.87,300343
9345,18.88,214423
9346,21.69,259590
9347,18.75,228776
9349,28.55,305223
9352,15.1,173448
9357,20.4,250816
9358,20.28,245484
9360,15.53,184135
9361,19.59,242326
9362,20.72,242751
9364,21.12,253315
9365,15.56,185494
9366,16.01,196625
9367,17.56,220785
9368,10.89,138259
9369,17.63,226813
9370,18.52,225228
9372,13.65,172673
9373,18.66,238352
9375,19.52,238831
9376,25.14,292733
9377,18.4,227048
9378,30.8,324257
9379,19.05,228652
9380,22.05,249162
9384,21.78,248631
9385,16.17,183519
9386,17.66,217698
9389,18.6,226124
9394,32.35,362941
9396,27.81,317556
9397,19.63,236757
9399,24.46,286033
9402,24.48,272594
9403,25.43,312377
9404,18.63,233602
9405,14.99,178810
9406,16.69,214230
9407,13.21,168670
9409,14.34,179872
9410,27.95,320618
9411,24.06,276647
9412,20.54,255960
9415,19.45,230428
9417,14.9,187899
9418,17.58,221567
9419,17.93,229641
9420,11.03,132806
9421,20.28,240500
9423,14.62,193085
9424,19.5,244878
9425,16.64,191708
9426,17.21,211326
9427,30.51,354158
9429,18.01,213499
9431,19.7,238092
9432,20.23,248402
9433,14.39,174790
9434,21.01,258505
9435,15.32,192192
9436,18.71,225227
9437,18.3,228496
9438,21.97,276573
9439,20.17,245993
9440,40.48,437209
9442,20.5,244908
9443,16.54,204123
9444,18.64,231300
9445,22.25,262591
9446,25.62,318089
9447,20.75,247240
9448,11.31,137935
9449,19.19,239840
9450,23.62,284227
9451,22.25,263053
9452,18.27,233196
9455,17.5,229382
9458,25.84,279514
9462,21.63,258986
9464,26.63,295295
9465,21.84,263781
9466,24.82,285661
9467,26.1,288094
9469,16.86,213703
9470,20.17,242875
9471,20.61,242155
9473,15.15,182924
9474,18.32,222698
9475,15.5,192653
9477,15.97,202432
9477,16.0,202432
9478,13.31,172652
9479,15.63,195518
9481,21.07,260899
9482,18.97,239550
9483,21.72,255434
9484,23.54,266377
9485,18.48,224837
9486,34.93,382022
9487,19.62,240185
9487,19.34,240185
9488,16.75,213837
9489,23.25,283744
9490,17.31,222902
9491,9.58,118037
9492,20.43,254391
9493,19.74,246677
9494,19.02,234406
9496,15.61,204034
9498,12.16,151305
9499,16.81,214162
9500,16.42,205104
9501,21.04,262223
9502,18.48,226540
9506,20.29,249967
9508,20.64,241739
9509,26.14,297116
9512,23.5,276925
9513,20.14,240554
9514,16.58,204307
9515,19.7,246309
9517,21.13,250065
9518,20.17,239988
9519,15.38,178318
9523,26.97,311074
9524,27.1,324240
9525,19.92,246104
9526,19.85,245728
9527,17.04,213578
9529,17.94,215267
9530,23.17,274599
9532,18.24,232496
9534,29.77,315241
9536,19.16,235352
9537,19.08,239219
9538,20.91,257893
9539,21.11,248747
9540,31.2,357787
9541,13.31,172451
9542,12.47,150750
9543,15.37,195544
9544,21.59,266984
9545,15.53,192058
9546,22.4,273699
9548,21.48,264305
9549,22.41,264578
9550,18.97,230274
9551,21.51,257468
9552,19.94,242512
9554,23.68,274480
9557,15.24,183459
9557,15.18,183459
9559,15.94,200549
9560,12.01,152047
9560,11.96,152047
9561,19.83,238908
9563,8.99,112543
9565,19.7,242615
9566,17.23,219714
9567,19.0,244039
9568,20.38,244052
